# Parameters:
# omega_b = 0.022000, omega_m = 0.130000, n_s = 1.000000, h = 71.357422, w = -1.000000, sigma_8 = 0.800000
# z = 0.500000
#
# k[1/Mpc] # P(k):
8.694000e-04 9.477725e+03 
2.077466e-03 2.067908e+04 
3.285532e-03 2.950137e+04 
4.493598e-03 3.626933e+04 
5.701664e-03 4.126198e+04 
6.909730e-03 4.475983e+04 
8.117797e-03 4.708562e+04 
9.325863e-03 4.840742e+04 
1.053393e-02 4.889559e+04 
1.174199e-02 4.870858e+04 
1.295006e-02 4.794865e+04 
1.415813e-02 4.675364e+04 
1.536619e-02 4.523993e+04 
1.657426e-02 4.348891e+04 
1.778233e-02 4.157416e+04 
1.899039e-02 3.960189e+04 
2.019846e-02 3.762940e+04 
2.140652e-02 3.570532e+04 
2.261459e-02 3.385686e+04 
2.382266e-02 3.211590e+04 
2.503072e-02 3.050290e+04 
2.623879e-02 2.902451e+04 
2.744685e-02 2.768324e+04 
2.865492e-02 2.647747e+04 
2.986299e-02 2.539989e+04 
3.100100e-02 2.449827e+04 
3.220400e-02 2.365344e+04 
3.288100e-02 2.322512e+04 
3.424300e-02 2.245161e+04 
3.555100e-02 2.180170e+04 
3.686000e-02 2.122878e+04 
3.795000e-02 2.079788e+04 
3.929100e-02 2.031497e+04 
4.039800e-02 1.994115e+04 
4.164000e-02 1.953905e+04 
4.294400e-02 1.911918e+04 
4.415000e-02 1.873168e+04 
4.542900e-02 1.830287e+04 
4.660900e-02 1.789815e+04 
4.782300e-02 1.745130e+04 
4.892900e-02 1.703140e+04 
5.031200e-02 1.648282e+04 
5.155900e-02 1.596617e+04 
5.238100e-02 1.561822e+04 
5.378200e-02 1.501722e+04 
5.513400e-02 1.443137e+04 
5.627600e-02 1.393833e+04 
5.735300e-02 1.348101e+04 
5.870100e-02 1.292469e+04 
5.988700e-02 1.245568e+04 
6.113500e-02 1.198604e+04 
6.225900e-02 1.158736e+04 
6.340100e-02 1.120826e+04 
6.480200e-02 1.077817e+04 
6.601100e-02 1.044172e+04 
6.725500e-02 1.012775e+04 
6.829100e-02 9.892966e+03 
6.958600e-02 9.626283e+03 
7.071100e-02 9.420520e+03 
7.192300e-02 9.221836e+03 
7.307400e-02 9.052933e+03 
7.412300e-02 8.913640e+03 
7.550400e-02 8.749937e+03 
7.663100e-02 8.627896e+03 
7.791200e-02 8.501276e+03 
7.912700e-02 8.388168e+03 
8.027600e-02 8.284332e+03 
8.138400e-02 8.185483e+03 
8.272200e-02 8.065548e+03 
8.406100e-02 7.942714e+03 
8.534100e-02 7.818592e+03 
8.653800e-02 7.695718e+03 
8.759800e-02 7.582974e+03 
8.900300e-02 7.426679e+03 
9.009000e-02 7.299702e+03 
9.113300e-02 7.172677e+03 
9.239600e-02 7.016385e+03 
9.358000e-02 6.866329e+03 
9.496100e-02 6.687511e+03 
9.608400e-02 6.542654e+03 
9.727500e-02 6.390677e+03 
9.852600e-02 6.232005e+03 
9.973800e-02 6.083097e+03 
1.009000e-01 5.944681e+03 
1.020900e-01 5.809734e+03 
1.034000e-01 5.668305e+03 
1.046000e-01 5.545438e+03 
1.057200e-01 5.439977e+03 
1.069100e-01 5.333474e+03 
1.082500e-01 5.224495e+03 
1.093900e-01 5.139387e+03 
1.105400e-01 5.058622e+03 
1.116900e-01 4.986724e+03 
1.129600e-01 4.911654e+03 
1.142000e-01 4.845819e+03 
1.153300e-01 4.789035e+03 
1.166400e-01 4.727528e+03 
1.177800e-01 4.676746e+03 
1.190000e-01 4.624371e+03 
1.201200e-01 4.576993e+03 
1.213400e-01 4.526527e+03 
1.227100e-01 4.468432e+03 
1.238900e-01 4.418757e+03 
1.250700e-01 4.367198e+03 
1.263200e-01 4.312444e+03 
1.275500e-01 4.256690e+03 
1.287500e-01 4.201849e+03 
1.299900e-01 4.143789e+03 
1.311300e-01 4.090159e+03 
1.323500e-01 4.031854e+03 
1.335900e-01 3.972878e+03 
1.347100e-01 3.919355e+03 
1.359800e-01 3.859471e+03 
1.372100e-01 3.801720e+03 
1.384300e-01 3.745583e+03 
1.395700e-01 3.693896e+03 
1.407700e-01 3.640679e+03 
1.420300e-01 3.586319e+03 
1.432800e-01 3.533604e+03 
1.444500e-01 3.486347e+03 
1.456300e-01 3.439670e+03 
1.468900e-01 3.392044e+03 
1.480500e-01 3.349452e+03 
1.491700e-01 3.309839e+03 
1.503800e-01 3.268792e+03 
1.516400e-01 3.227240e+03 
1.528200e-01 3.190498e+03 
1.540200e-01 3.153851e+03 
1.551900e-01 3.119975e+03 
1.564300e-01 3.085041e+03 
1.576600e-01 3.051533e+03 
1.588700e-01 3.019764e+03 
1.600900e-01 2.988358e+03 
1.612700e-01 2.959066e+03 
1.625400e-01 2.928124e+03 
1.637600e-01 2.898943e+03 
1.649500e-01 2.870984e+03 
1.662200e-01 2.841619e+03 
1.674000e-01 2.814445e+03 
1.685000e-01 2.789534e+03 
1.697500e-01 2.761301e+03 
1.710300e-01 2.732511e+03 
1.722200e-01 2.706217e+03 
1.734400e-01 2.678837e+03 
1.746400e-01 2.652330e+03 
1.758700e-01 2.625368e+03 
1.770900e-01 2.598559e+03 
1.782700e-01 2.573063e+03 
1.794600e-01 2.547456e+03 
1.807000e-01 2.521009e+03 
1.819100e-01 2.495636e+03 
1.830100e-01 2.472769e+03 
1.842200e-01 2.447983e+03 
1.855000e-01 2.422207e+03 
1.867000e-01 2.398536e+03 
1.879200e-01 2.374858e+03 
1.890900e-01 2.352562e+03 
1.902800e-01 2.330510e+03 
1.915200e-01 2.307895e+03 
1.926900e-01 2.286987e+03 
1.939000e-01 2.266015e+03 
1.951700e-01 2.244351e+03 
1.963100e-01 2.225317e+03 
1.975100e-01 2.205888e+03 
1.987800e-01 2.185641e+03 
2.000100e-01 2.166439e+03 
2.012500e-01 2.147614e+03 
2.023400e-01 2.131301e+03 
2.036100e-01 2.112613e+03 
2.048900e-01 2.094247e+03 
2.060400e-01 2.077986e+03 
2.072200e-01 2.061538e+03 
2.084200e-01 2.045126e+03 
2.096900e-01 2.028009e+03 
2.109200e-01 2.011672e+03 
2.121100e-01 1.996060e+03 
2.132700e-01 1.981046e+03 
2.145200e-01 1.965091e+03 
2.157200e-01 1.949939e+03 
2.168800e-01 1.935465e+03 
2.180700e-01 1.920815e+03 
2.193400e-01 1.905361e+03 
2.206000e-01 1.890184e+03 
2.217500e-01 1.876517e+03 
2.229500e-01 1.862441e+03 
2.241400e-01 1.848605e+03 
2.253500e-01 1.834720e+03 
2.264900e-01 1.821806e+03 
2.277100e-01 1.808143e+03 
2.289900e-01 1.793979e+03 
2.301500e-01 1.781310e+03 
2.313600e-01 1.768263e+03 
2.325600e-01 1.755507e+03 
2.337700e-01 1.742809e+03 
2.350000e-01 1.730065e+03 
2.362000e-01 1.717815e+03 
2.374100e-01 1.705647e+03 
2.386500e-01 1.693335e+03 
2.399100e-01 1.680986e+03 
2.410400e-01 1.670110e+03 
2.422500e-01 1.658611e+03 
2.435000e-01 1.646880e+03 
2.447300e-01 1.635496e+03 
2.458700e-01 1.625133e+03 
2.470600e-01 1.614441e+03 
2.483300e-01 1.603170e+03 
2.495600e-01 1.592426e+03 
2.507600e-01 1.582121e+03 
2.519600e-01 1.571937e+03 
2.532200e-01 1.561371e+03 
2.543700e-01 1.551878e+03 
2.555500e-01 1.542273e+03 
2.568000e-01 1.532217e+03 
2.580100e-01 1.522596e+03 
2.592400e-01 1.512968e+03 
2.604100e-01 1.503930e+03 
2.616100e-01 1.494764e+03 
2.628400e-01 1.485475e+03 
2.640600e-01 1.476395e+03 
2.652200e-01 1.467867e+03 
2.664300e-01 1.459070e+03 
2.676500e-01 1.450298e+03 
2.688400e-01 1.441853e+03 
2.700700e-01 1.433231e+03 
2.712400e-01 1.425119e+03 
2.724800e-01 1.416614e+03 
2.736700e-01 1.408540e+03 
2.748800e-01 1.400416e+03 
2.761000e-01 1.392314e+03 
2.773200e-01 1.384299e+03 
2.785400e-01 1.376372e+03 
2.797000e-01 1.368916e+03 
2.808900e-01 1.361346e+03 
2.821400e-01 1.353479e+03 
2.833900e-01 1.345697e+03 
2.845500e-01 1.338546e+03 
2.857800e-01 1.331042e+03 
2.870300e-01 1.323496e+03 
2.882100e-01 1.316446e+03 
2.893900e-01 1.309465e+03 
2.906300e-01 1.302202e+03 
2.918900e-01 1.294900e+03 
2.930500e-01 1.288245e+03 
2.942500e-01 1.281429e+03 
2.954200e-01 1.274847e+03 
2.966500e-01 1.267996e+03 
2.978900e-01 1.261160e+03 
2.990400e-01 1.254882e+03 
3.002700e-01 1.248236e+03 
3.015100e-01 1.241605e+03 
3.026800e-01 1.235409e+03 
3.038500e-01 1.229272e+03 
3.050300e-01 1.223141e+03 
3.062600e-01 1.216819e+03 
3.075000e-01 1.210508e+03 
3.087000e-01 1.204460e+03 
3.099100e-01 1.198420e+03 
3.111200e-01 1.192443e+03 
3.123100e-01 1.186629e+03 
3.135300e-01 1.180725e+03 
3.147300e-01 1.174972e+03 
3.159900e-01 1.168990e+03 
3.171800e-01 1.163401e+03 
3.183700e-01 1.157870e+03 
3.196300e-01 1.152069e+03 
3.208400e-01 1.146550e+03 
3.220300e-01 1.141172e+03 
3.232000e-01 1.135948e+03 
3.244300e-01 1.130511e+03 
3.256700e-01 1.125081e+03 
3.269200e-01 1.119658e+03 
3.280800e-01 1.114671e+03 
3.292500e-01 1.109699e+03 
3.304800e-01 1.104523e+03 
3.317100e-01 1.099395e+03 
3.328900e-01 1.094518e+03 
3.340700e-01 1.089684e+03 
3.353600e-01 1.084463e+03 
3.365300e-01 1.079776e+03 
3.377100e-01 1.075089e+03 
3.389200e-01 1.070325e+03 
3.401600e-01 1.065485e+03 
3.413700e-01 1.060815e+03 
3.425300e-01 1.056382e+03 
3.437700e-01 1.051685e+03 
3.449800e-01 1.047140e+03 
3.461800e-01 1.042672e+03 
3.473600e-01 1.038321e+03 
3.485800e-01 1.033872e+03 
3.498100e-01 1.029426e+03 
3.510200e-01 1.025089e+03 
3.522000e-01 1.020895e+03 
3.533900e-01 1.016700e+03 
3.546400e-01 1.012347e+03 
3.558400e-01 1.008204e+03 
3.570600e-01 1.004027e+03 
3.582700e-01 9.999183e+02 
3.595000e-01 9.957766e+02 
3.607100e-01 9.917433e+02 
3.618900e-01 9.878474e+02 
3.631200e-01 9.838195e+02 
3.643200e-01 9.799218e+02 
3.655500e-01 9.759593e+02 
3.667300e-01 9.721884e+02 
3.679500e-01 9.683394e+02 
3.691900e-01 9.644591e+02 
3.703600e-01 9.608271e+02 
3.715700e-01 9.571004e+02 
3.727700e-01 9.534338e+02 
3.739900e-01 9.497365e+02 
3.752000e-01 9.461003e+02 
3.763900e-01 9.425522e+02 
3.775800e-01 9.390314e+02 
3.788200e-01 9.353915e+02 
3.800300e-01 9.318677e+02 
3.812100e-01 9.284449e+02 
3.824200e-01 9.249533e+02 
3.836100e-01 9.215457e+02 
3.848600e-01 9.179941e+02 
3.860400e-01 9.146672e+02 
3.872400e-01 9.113094e+02 
3.884600e-01 9.079475e+02 
3.896500e-01 9.047027e+02 
3.908700e-01 9.014013e+02 
3.920600e-01 8.982053e+02 
3.933100e-01 8.948738e+02 
3.945300e-01 8.916471e+02 
3.957200e-01 8.885100e+02 
3.969300e-01 8.853400e+02 
3.981700e-01 8.821159e+02 
3.993500e-01 8.790707e+02 
4.094840e-01 8.537025e+02 
4.272360e-01 8.128777e+02 
4.454600e-01 7.747803e+02 
4.630560e-01 7.411836e+02 
4.804610e-01 7.106499e+02 
4.980690e-01 6.822584e+02 
5.159230e-01 6.557066e+02 
5.317440e-01 6.339433e+02 
5.489640e-01 6.118173e+02 
5.671990e-01 5.900652e+02 
5.838690e-01 5.715812e+02 
6.018840e-01 5.529897e+02 
6.202330e-01 5.353677e+02 
6.379250e-01 5.194321e+02 
6.545410e-01 5.053955e+02 
6.714560e-01 4.919288e+02 
6.892080e-01 4.785888e+02 
7.066010e-01 4.661864e+02 
7.240540e-01 4.544266e+02 
7.420450e-01 4.430002e+02 
7.593780e-01 4.324363e+02 
7.764720e-01 4.225314e+02 
7.942840e-01 4.127078e+02 
8.116170e-01 4.034839e+02 
8.288310e-01 3.947416e+02 
8.462240e-01 3.862124e+02 
8.631980e-01 3.782113e+02 
8.810700e-01 3.701134e+02 
8.989410e-01 3.623303e+02 
9.166330e-01 3.548702e+02 
9.345640e-01 3.475276e+02 
9.515980e-01 3.407836e+02 
9.688720e-01 3.341789e+02 
9.865640e-01 3.276081e+02 
1.031870e+00 3.116376e+02 
1.063490e+00 3.011708e+02 
1.097920e+00 2.903365e+02 
1.134370e+00 2.795047e+02 
1.167730e+00 2.700402e+02 
1.203830e+00 2.603248e+02 
1.240470e+00 2.509638e+02 
1.275790e+00 2.423393e+02 
1.309140e+00 2.346031e+02 
1.342970e+00 2.270534e+02 
1.378420e+00 2.195444e+02 
1.413200e+00 2.124775e+02 
1.448110e+00 2.056986e+02 
1.484090e+00 1.990318e+02 
1.518820e+00 1.928739e+02 
1.552880e+00 1.870604e+02 
1.588630e+00 1.812377e+02 
1.623230e+00 1.758409e+02 
1.657720e+00 1.706781e+02 
1.692450e+00 1.657207e+02 
1.726400e+00 1.610228e+02 
1.762200e+00 1.562648e+02 
1.797880e+00 1.517244e+02 
1.833270e+00 1.474019e+02 
1.869070e+00 1.431973e+02 
1.903200e+00 1.393534e+02 
1.937740e+00 1.356052e+02 
1.973190e+00 1.318994e+02 
2.007440e+00 1.284514e+02 
2.042160e+00 1.250837e+02 
2.077900e+00 1.217379e+02 
2.112390e+00 1.186459e+02 
2.146220e+00 1.156908e+02 
2.181600e+00 1.127262e+02 
2.216930e+00 1.098719e+02 
2.250760e+00 1.072270e+02 
2.286500e+00 1.045257e+02 
2.321770e+00 1.019556e+02 
2.355950e+00 9.955002e+01 
2.391280e+00 9.713723e+01 
2.426240e+00 9.483589e+01 
2.460670e+00 9.264158e+01 
2.495640e+00 9.047790e+01 
2.531080e+00 8.836737e+01 
2.566220e+00 8.633689e+01 
2.600830e+00 8.440016e+01 
2.635080e+00 8.254457e+01 
2.670340e+00 8.068539e+01 
2.705970e+00 7.887338e+01 
2.740040e+00 7.719615e+01 
2.774520e+00 7.553930e+01 
2.809730e+00 7.390274e+01 
2.844390e+00 7.234179e+01 
2.879960e+00 7.078525e+01 
2.914860e+00 6.930180e+01 
2.949410e+00 6.787703e+01 
2.984440e+00 6.647717e+01 
3.019760e+00 6.510271e+01 
3.054730e+00 6.377943e+01 
3.089030e+00 6.251880e+01 
3.124060e+00 6.126805e+01 
3.159560e+00 6.003658e+01 
3.194710e+00 5.885185e+01 
3.229010e+00 5.772773e+01 
3.263320e+00 5.662814e+01 
3.297930e+00 5.555005e+01 
3.332830e+00 5.449402e+01 
3.368040e+00 5.345610e+01 
3.403300e+00 5.244385e+01 
3.438450e+00 5.145972e+01 
3.473060e+00 5.051594e+01 
3.508440e+00 4.958034e+01 
3.543110e+00 4.868701e+01 
3.577470e+00 4.782104e+01 
3.613040e+00 4.694845e+01 
3.648120e+00 4.611239e+01 
3.682910e+00 4.530221e+01 
3.718050e+00 4.450066e+01 
3.753320e+00 4.371837e+01 
3.787980e+00 4.297160e+01 
3.822290e+00 4.224882e+01 
3.857020e+00 4.153263e+01 
3.891920e+00 4.083019e+01 
3.926650e+00 4.014784e+01 
3.961970e+00 3.947034e+01 
3.997360e+00 3.880760e+01 
4.031670e+00 3.818030e+01 
4.066330e+00 3.756234e+01 
4.101420e+00 3.695100e+01 
4.136200e+00 3.635854e+01 
4.170810e+00 3.578218e+01 
4.206250e+00 3.520649e+01 
4.241580e+00 3.464572e+01 
4.276300e+00 3.410639e+01 
4.310970e+00 3.357931e+01 
4.346120e+00 3.305719e+01 
4.380600e+00 3.255713e+01 
4.414730e+00 3.207251e+01 
4.450350e+00 3.157690e+01 
4.485320e+00 3.110069e+01 
4.519810e+00 3.064199e+01 
4.555430e+00 3.017868e+01 
4.590870e+00 2.972783e+01 
4.625480e+00 2.929752e+01 
4.659910e+00 2.887805e+01 
4.695230e+00 2.845620e+01 
4.729960e+00 2.804970e+01 
4.764450e+00 2.765387e+01 
4.799530e+00 2.725903e+01 
4.834910e+00 2.686871e+01 
4.869700e+00 2.649505e+01 
4.904370e+00 2.613026e+01 
4.939450e+00 2.576819e+01 
4.973940e+00 2.541882e+01 
5.008430e+00 2.507600e+01 
5.043810e+00 2.473089e+01 
5.078840e+00 2.439559e+01 
5.113500e+00 2.407001e+01 
5.148890e+00 2.374629e+01 
5.184210e+00 2.342932e+01 
5.219060e+00 2.312192e+01 
5.253660e+00 2.282117e+01 
5.288570e+00 2.252317e+01 
5.323420e+00 2.223218e+01 
5.358440e+00 2.194628e+01 
5.393590e+00 2.166440e+01 
5.428310e+00 2.139083e+01 
5.462800e+00 2.112375e+01 
5.497640e+00 2.085861e+01 
5.532670e+00 2.059828e+01 
5.567280e+00 2.034600e+01 
5.602000e+00 2.009720e+01 
5.637270e+00 1.984778e+01 
5.672410e+00 1.960328e+01 
5.707020e+00 1.936651e+01 
5.742040e+00 1.913260e+01 
5.777430e+00 1.890051e+01 
5.812210e+00 1.867619e+01 
5.846820e+00 1.845650e+01 
5.881610e+00 1.823921e+01 
5.916510e+00 1.802476e+01 
5.951600e+00 1.781328e+01 
5.986560e+00 1.760625e+01 
6.021830e+00 1.740073e+01 
6.056490e+00 1.720239e+01 
6.091160e+00 1.700746e+01 
6.125830e+00 1.681555e+01 
6.161090e+00 1.662339e+01 
6.195760e+00 1.643732e+01 
6.230420e+00 1.625415e+01 
6.265690e+00 1.607065e+01 
6.300950e+00 1.589084e+01 
6.335620e+00 1.571672e+01 
6.370880e+00 1.554230e+01 
6.405550e+00 1.537383e+01 
6.440220e+00 1.520803e+01 
6.475480e+00 1.504192e+01 
6.510150e+00 1.488121e+01 
6.544810e+00 1.472337e+01 
6.580080e+00 1.456511e+01 
6.614750e+00 1.441180e+01 
6.649410e+00 1.426072e+01 
6.684080e+00 1.411174e+01 
6.719340e+00 1.396241e+01 
6.754010e+00 1.381785e+01 
6.788680e+00 1.367571e+01 
6.823940e+00 1.353321e+01 
6.859800e+00 1.339035e+01 
6.894470e+00 1.325459e+01 
6.929140e+00 1.312085e+01 
6.963800e+00 1.298898e+01 
6.999070e+00 1.285665e+01 
7.033730e+00 1.272838e+01 
7.068400e+00 1.260181e+01 
7.103660e+00 1.247483e+01 
7.138330e+00 1.235201e+01 
7.173600e+00 1.222945e+01 
7.208260e+00 1.211061e+01 
7.243530e+00 1.199130e+01 
7.277600e+00 1.187729e+01 
7.312860e+00 1.176059e+01 
7.348120e+00 1.164544e+01 
7.382790e+00 1.153370e+01 
7.417460e+00 1.142403e+01 
7.452720e+00 1.131425e+01 
7.487390e+00 1.120770e+01 
7.522650e+00 1.110074e+01 
7.557320e+00 1.099690e+01 
7.591990e+00 1.089437e+01 
7.627250e+00 1.079142e+01 
7.662510e+00 1.068978e+01 
7.697180e+00 1.059140e+01 
7.731850e+00 1.049436e+01 
7.766510e+00 1.039854e+01 
7.801180e+00 1.030388e+01 
7.836440e+00 1.020879e+01 
7.871110e+00 1.011643e+01 
7.906380e+00 1.002363e+01 
7.941040e+00 9.933552e+00 
7.976310e+00 9.843184e+00 
8.011570e+00 9.754158e+00 
8.046240e+00 9.667680e+00 
8.080900e+00 9.582260e+00 
8.115570e+00 9.497872e+00 
8.150830e+00 9.413224e+00 
8.185500e+00 9.330983e+00 
8.220770e+00 9.248312e+00 
8.255430e+00 9.168030e+00 
8.290100e+00 9.088815e+00 
8.324770e+00 9.010539e+00 
8.359430e+00 8.933192e+00 
8.394700e+00 8.855399e+00 
8.429960e+00 8.778629e+00 
8.464630e+00 8.704108e+00 
8.499890e+00 8.629191e+00 
8.534560e+00 8.556372e+00 
8.569200e+00 8.484439e+00 
