# Parameters:
# omega_b = 0.022500, omega_m = 0.137500, n_s = 0.950000, h = 69.033203, w = -1.000000,sigma_8 = 0.755000
# z = 0.060000
#
# k[1/Mpc] # P(k):
8.694000e-04 1.450417e+04 
2.077466e-03 3.054269e+04 
3.285532e-03 4.286687e+04 
4.493598e-03 5.218579e+04 
5.701664e-03 5.898775e+04 
6.909730e-03 6.370612e+04 
8.117797e-03 6.680972e+04 
9.325863e-03 6.854259e+04 
1.053393e-02 6.914402e+04 
1.174199e-02 6.883412e+04 
1.295006e-02 6.775368e+04 
1.415813e-02 6.608962e+04 
1.536619e-02 6.399904e+04 
1.657426e-02 6.158948e+04 
1.778233e-02 5.895778e+04 
1.899039e-02 5.624637e+04 
2.019846e-02 5.352997e+04 
2.140652e-02 5.087289e+04 
2.261459e-02 4.831097e+04 
2.382266e-02 4.588650e+04 
2.503072e-02 4.362775e+04 
2.623879e-02 4.154460e+04 
2.744685e-02 3.964043e+04 
2.865492e-02 3.791538e+04 
2.986299e-02 3.636121e+04 
3.100100e-02 3.504865e+04 
3.220400e-02 3.380712e+04 
3.288100e-02 3.317146e+04 
3.424300e-02 3.201333e+04 
3.555100e-02 3.103381e+04 
3.686000e-02 3.016067e+04 
3.795000e-02 2.950430e+04 
3.929100e-02 2.876576e+04 
4.039800e-02 2.819534e+04 
4.164000e-02 2.758804e+04 
4.294400e-02 2.696064e+04 
4.415000e-02 2.639428e+04 
4.542900e-02 2.577747e+04 
4.660900e-02 2.520379e+04 
4.782300e-02 2.457898e+04 
4.892900e-02 2.399984e+04 
5.031200e-02 2.324883e+04 
5.155900e-02 2.254632e+04 
5.238100e-02 2.207498e+04 
5.378200e-02 2.126393e+04 
5.513400e-02 2.047269e+04 
5.627600e-02 1.980639e+04 
5.735300e-02 1.918807e+04 
5.870100e-02 1.843279e+04 
5.988700e-02 1.779381e+04 
6.113500e-02 1.715004e+04 
6.225900e-02 1.660075e+04 
6.340100e-02 1.607368e+04 
6.480200e-02 1.547133e+04 
6.601100e-02 1.499648e+04 
6.725500e-02 1.454878e+04 
6.829100e-02 1.421117e+04 
6.958600e-02 1.382224e+04 
7.071100e-02 1.351889e+04 
7.192300e-02 1.322258e+04 
7.307400e-02 1.296693e+04 
7.412300e-02 1.275375e+04 
7.550400e-02 1.250127e+04 
7.663100e-02 1.231156e+04 
7.791200e-02 1.211191e+04 
7.912700e-02 1.193461e+04 
8.027600e-02 1.177293e+04 
8.138400e-02 1.162068e+04 
8.272200e-02 1.143871e+04 
8.406100e-02 1.125497e+04 
8.534100e-02 1.107475e+04 
8.653800e-02 1.089968e+04 
8.759800e-02 1.074199e+04 
8.900300e-02 1.052745e+04 
9.009000e-02 1.035443e+04 
9.113300e-02 1.018460e+04 
9.239600e-02 9.977316e+03 
9.358000e-02 9.778984e+03 
9.496100e-02 9.545286e+03 
9.608400e-02 9.356372e+03 
9.727500e-02 9.158195e+03 
9.852600e-02 8.951133e+03 
9.973800e-02 8.757034e+03 
1.009000e-01 8.576784e+03 
1.020900e-01 8.398622e+03 
1.034000e-01 8.211031e+03 
1.046000e-01 8.047238e+03 
1.057200e-01 7.904389e+03 
1.069100e-01 7.759226e+03 
1.082500e-01 7.608245e+03 
1.093900e-01 7.487980e+03 
1.105400e-01 7.372416e+03 
1.116900e-01 7.267145e+03 
1.129600e-01 7.156350e+03 
1.142000e-01 7.056910e+03 
1.153300e-01 6.970340e+03 
1.166400e-01 6.875286e+03 
1.177800e-01 6.796355e+03 
1.190000e-01 6.714723e+03 
1.201200e-01 6.641483e+03 
1.213400e-01 6.563571e+03 
1.227100e-01 6.476187e+03 
1.238900e-01 6.402050e+03 
1.250700e-01 6.327014e+03 
1.263200e-01 6.248195e+03 
1.275500e-01 6.169809e+03 
1.287500e-01 6.093440e+03 
1.299900e-01 6.013709e+03 
1.311300e-01 5.940728e+03 
1.323500e-01 5.862363e+03 
1.335900e-01 5.783516e+03 
1.347100e-01 5.712510e+03 
1.359800e-01 5.633248e+03 
1.372100e-01 5.557207e+03 
1.384300e-01 5.483146e+03 
1.395700e-01 5.414678e+03 
1.407700e-01 5.344121e+03 
1.420300e-01 5.271776e+03 
1.432800e-01 5.201580e+03 
1.444500e-01 5.137994e+03 
1.456300e-01 5.075158e+03 
1.468900e-01 5.010360e+03 
1.480500e-01 4.952189e+03 
1.491700e-01 4.897565e+03 
1.503800e-01 4.840292e+03 
1.516400e-01 4.782201e+03 
1.528200e-01 4.730379e+03 
1.540200e-01 4.678684e+03 
1.551900e-01 4.630367e+03 
1.564300e-01 4.580407e+03 
1.576600e-01 4.532141e+03 
1.588700e-01 4.485961e+03 
1.600900e-01 4.440301e+03 
1.612700e-01 4.397598e+03 
1.625400e-01 4.352486e+03 
1.637600e-01 4.310075e+03 
1.649500e-01 4.269516e+03 
1.662200e-01 4.226975e+03 
1.674000e-01 4.187932e+03 
1.685000e-01 4.152139e+03 
1.697500e-01 4.111957e+03 
1.710300e-01 4.071359e+03 
1.722200e-01 4.034278e+03 
1.734400e-01 3.996145e+03 
1.746400e-01 3.959243e+03 
1.758700e-01 3.921867e+03 
1.770900e-01 3.885032e+03 
1.782700e-01 3.849994e+03 
1.794600e-01 3.814907e+03 
1.807000e-01 3.778731e+03 
1.819100e-01 3.744017e+03 
1.830100e-01 3.712843e+03 
1.842200e-01 3.679063e+03 
1.855000e-01 3.643931e+03 
1.867000e-01 3.611792e+03 
1.879200e-01 3.579635e+03 
1.890900e-01 3.549263e+03 
1.902800e-01 3.518779e+03 
1.915200e-01 3.487510e+03 
1.926900e-01 3.458591e+03 
1.939000e-01 3.429563e+03 
1.951700e-01 3.399571e+03 
1.963100e-01 3.373119e+03 
1.975100e-01 3.345848e+03 
1.987800e-01 3.317427e+03 
2.000100e-01 3.290363e+03 
2.012500e-01 3.263580e+03 
2.023400e-01 3.240369e+03 
2.036100e-01 3.213765e+03 
2.048900e-01 3.187577e+03 
2.060400e-01 3.164388e+03 
2.072200e-01 3.140933e+03 
2.084200e-01 3.117547e+03 
2.096900e-01 3.093153e+03 
2.109200e-01 3.069871e+03 
2.121100e-01 3.047600e+03 
2.132700e-01 3.026181e+03 
2.145200e-01 3.003417e+03 
2.157200e-01 2.981851e+03 
2.168800e-01 2.961274e+03 
2.180700e-01 2.940443e+03 
2.193400e-01 2.918502e+03 
2.206000e-01 2.897013e+03 
2.217500e-01 2.877662e+03 
2.229500e-01 2.857729e+03 
2.241400e-01 2.838211e+03 
2.253500e-01 2.818623e+03 
2.264900e-01 2.800403e+03 
2.277100e-01 2.781262e+03 
2.289900e-01 2.761572e+03 
2.301500e-01 2.743960e+03 
2.313600e-01 2.725818e+03 
2.325600e-01 2.708019e+03 
2.337700e-01 2.690298e+03 
2.350000e-01 2.672513e+03 
2.362000e-01 2.655511e+03 
2.374100e-01 2.638732e+03 
2.386500e-01 2.621754e+03 
2.399100e-01 2.604722e+03 
2.410400e-01 2.589644e+03 
2.422500e-01 2.573691e+03 
2.435000e-01 2.557414e+03 
2.447300e-01 2.541639e+03 
2.458700e-01 2.527365e+03 
2.470600e-01 2.512636e+03 
2.483300e-01 2.497108e+03 
2.495600e-01 2.482255e+03 
2.507600e-01 2.467940e+03 
2.519600e-01 2.453791e+03 
2.532200e-01 2.439111e+03 
2.543700e-01 2.425904e+03 
2.555500e-01 2.412527e+03 
2.568000e-01 2.398522e+03 
2.580100e-01 2.385122e+03 
2.592400e-01 2.371654e+03 
2.604100e-01 2.358986e+03 
2.616100e-01 2.346137e+03 
2.628400e-01 2.333115e+03 
2.640600e-01 2.320438e+03 
2.652200e-01 2.308553e+03 
2.664300e-01 2.296290e+03 
2.676500e-01 2.284064e+03 
2.688400e-01 2.272157e+03 
2.700700e-01 2.259914e+03 
2.712400e-01 2.248395e+03 
2.724800e-01 2.236319e+03 
2.736700e-01 2.224855e+03 
2.748800e-01 2.213323e+03 
2.761000e-01 2.201821e+03 
2.773200e-01 2.190443e+03 
2.785400e-01 2.179174e+03 
2.797000e-01 2.168544e+03 
2.808900e-01 2.157752e+03 
2.821400e-01 2.146535e+03 
2.833900e-01 2.135436e+03 
2.845500e-01 2.125152e+03 
2.857800e-01 2.114360e+03 
2.870300e-01 2.103508e+03 
2.882100e-01 2.093369e+03 
2.893900e-01 2.083280e+03 
2.906300e-01 2.072757e+03 
2.918900e-01 2.062177e+03 
2.930500e-01 2.052535e+03 
2.942500e-01 2.042660e+03 
2.954200e-01 2.033135e+03 
2.966500e-01 2.023221e+03 
2.978900e-01 2.013327e+03 
2.990400e-01 2.004242e+03 
3.002700e-01 1.994565e+03 
3.015100e-01 1.984882e+03 
3.026800e-01 1.975834e+03 
3.038500e-01 1.966872e+03 
3.050300e-01 1.957918e+03 
3.062600e-01 1.948689e+03 
3.075000e-01 1.939476e+03 
3.087000e-01 1.930647e+03 
3.099100e-01 1.921829e+03 
3.111200e-01 1.913083e+03 
3.123100e-01 1.904540e+03 
3.135300e-01 1.895864e+03 
3.147300e-01 1.887411e+03 
3.159900e-01 1.878620e+03 
3.171800e-01 1.870432e+03 
3.183700e-01 1.862342e+03 
3.196300e-01 1.853858e+03 
3.208400e-01 1.845786e+03 
3.220300e-01 1.837921e+03 
3.232000e-01 1.830226e+03 
3.244300e-01 1.822196e+03 
3.256700e-01 1.814177e+03 
3.269200e-01 1.806168e+03 
3.280800e-01 1.798803e+03 
3.292500e-01 1.791507e+03 
3.304800e-01 1.783928e+03 
3.317100e-01 1.776417e+03 
3.328900e-01 1.769275e+03 
3.340700e-01 1.762196e+03 
3.353600e-01 1.754553e+03 
3.365300e-01 1.747693e+03 
3.377100e-01 1.740833e+03 
3.389200e-01 1.733860e+03 
3.401600e-01 1.726778e+03 
3.413700e-01 1.719946e+03 
3.425300e-01 1.713464e+03 
3.437700e-01 1.706595e+03 
3.449800e-01 1.699950e+03 
3.461800e-01 1.693417e+03 
3.473600e-01 1.687045e+03 
3.485800e-01 1.680507e+03 
3.498100e-01 1.673973e+03 
3.510200e-01 1.667600e+03 
3.522000e-01 1.661437e+03 
3.533900e-01 1.655273e+03 
3.546400e-01 1.648942e+03 
3.558400e-01 1.642921e+03 
3.570600e-01 1.636851e+03 
3.582700e-01 1.630881e+03 
3.595000e-01 1.624863e+03 
3.607100e-01 1.618990e+03 
3.618900e-01 1.613308e+03 
3.631200e-01 1.607433e+03 
3.643200e-01 1.601748e+03 
3.655500e-01 1.595969e+03 
3.667300e-01 1.590470e+03 
3.679500e-01 1.584845e+03 
3.691900e-01 1.579175e+03 
3.703600e-01 1.573868e+03 
3.715700e-01 1.568423e+03 
3.727700e-01 1.563066e+03 
3.739900e-01 1.557672e+03 
3.752000e-01 1.552382e+03 
3.763900e-01 1.547220e+03 
3.775800e-01 1.542098e+03 
3.788200e-01 1.536804e+03 
3.800300e-01 1.531679e+03 
3.812100e-01 1.526708e+03 
3.824200e-01 1.521642e+03 
3.836100e-01 1.516698e+03 
3.848600e-01 1.511546e+03 
3.860400e-01 1.506720e+03 
3.872400e-01 1.501850e+03 
3.884600e-01 1.496949e+03 
3.896500e-01 1.492210e+03 
3.908700e-01 1.487388e+03 
3.920600e-01 1.482721e+03 
3.933100e-01 1.477857e+03 
3.945300e-01 1.473146e+03 
3.957200e-01 1.468578e+03 
3.969300e-01 1.463967e+03 
3.981700e-01 1.459277e+03 
3.993500e-01 1.454848e+03 
4.094840e-01 1.418018e+03 
4.272360e-01 1.358292e+03 
4.454600e-01 1.302056e+03 
4.630560e-01 1.252275e+03 
4.804610e-01 1.206541e+03 
4.980690e-01 1.163722e+03 
5.159230e-01 1.123295e+03 
5.317440e-01 1.089784e+03 
5.489640e-01 1.055613e+03 
5.671990e-01 1.021727e+03 
5.838690e-01 9.926858e+02 
6.018840e-01 9.632256e+02 
6.202330e-01 9.349567e+02 
6.379250e-01 9.093682e+02 
6.545410e-01 8.865073e+02 
6.714560e-01 8.643990e+02 
6.892080e-01 8.422987e+02 
7.066010e-01 8.217357e+02 
7.240540e-01 8.020236e+02 
7.420450e-01 7.824578e+02 
7.593780e-01 7.645433e+02 
7.764720e-01 7.474666e+02 
7.942840e-01 7.304079e+02 
8.116170e-01 7.143967e+02 
8.288310e-01 6.990391e+02 
8.462240e-01 6.840461e+02 
8.631980e-01 6.699116e+02 
8.810700e-01 6.554784e+02 
8.989410e-01 6.415416e+02 
9.166330e-01 6.281744e+02 
9.345640e-01 6.149960e+02 
9.515980e-01 6.028520e+02 
9.688720e-01 5.908665e+02 
9.865640e-01 5.789079e+02 
1.031870e+00 5.499189e+02 
1.063490e+00 5.308472e+02 
1.097920e+00 5.110224e+02 
1.134370e+00 4.911519e+02 
1.167730e+00 4.739396e+02 
1.203830e+00 4.561600e+02 
1.240470e+00 4.390838e+02 
1.275790e+00 4.233825e+02 
1.309140e+00 4.092712e+02 
1.342970e+00 3.956042e+02 
1.378420e+00 3.819544e+02 
1.413200e+00 3.691869e+02 
1.448110e+00 3.569409e+02 
1.484090e+00 3.449009e+02 
1.518820e+00 3.337931e+02 
1.552880e+00 3.233995e+02 
1.588630e+00 3.129629e+02 
1.623230e+00 3.032961e+02 
1.657720e+00 2.940904e+02 
1.692450e+00 2.852087e+02 
1.726400e+00 2.768725e+02 
1.762200e+00 2.684602e+02 
1.797880e+00 2.604102e+02 
1.833270e+00 2.527832e+02 
1.869070e+00 2.453633e+02 
1.903200e+00 2.385822e+02 
1.937740e+00 2.319758e+02 
1.973190e+00 2.254590e+02 
2.007440e+00 2.194192e+02 
2.042160e+00 2.135327e+02 
2.077900e+00 2.076786e+02 
2.112390e+00 2.022541e+02 
2.146220e+00 1.971337e+02 
2.181600e+00 1.919502e+02 
2.216930e+00 1.869824e+02 
2.250760e+00 1.823962e+02 
2.286500e+00 1.777157e+02 
2.321770e+00 1.732604e+02 
2.355950e+00 1.690968e+02 
2.391280e+00 1.649478e+02 
2.426240e+00 1.609689e+02 
2.460670e+00 1.571832e+02 
2.495640e+00 1.534776e+02 
2.531080e+00 1.498283e+02 
2.566220e+00 1.463334e+02 
2.600830e+00 1.430120e+02 
2.635080e+00 1.398402e+02 
2.670340e+00 1.366593e+02 
2.705970e+00 1.335519e+02 
2.740040e+00 1.306747e+02 
2.774520e+00 1.278451e+02 
2.809730e+00 1.250545e+02 
2.844390e+00 1.223945e+02 
2.879960e+00 1.197422e+02 
2.914860e+00 1.172146e+02 
2.949410e+00 1.147867e+02 
2.984440e+00 1.123990e+02 
3.019760e+00 1.100636e+02 
3.054730e+00 1.078200e+02 
3.089030e+00 1.056767e+02 
3.124060e+00 1.035511e+02 
3.159560e+00 1.014596e+02 
3.194710e+00 9.944871e+01 
3.229010e+00 9.754147e+01 
3.263320e+00 9.568045e+01 
3.297930e+00 9.385686e+01 
3.332830e+00 9.207261e+01 
3.368040e+00 9.031876e+01 
3.403300e+00 8.860814e+01 
3.438450e+00 8.694865e+01 
3.473060e+00 8.535801e+01 
3.508440e+00 8.377578e+01 
3.543110e+00 8.226534e+01 
3.577470e+00 8.080325e+01 
3.613040e+00 7.932985e+01 
3.648120e+00 7.791769e+01 
3.682910e+00 7.655122e+01 
3.718050e+00 7.520308e+01 
3.753320e+00 7.388564e+01 
3.787980e+00 7.262560e+01 
3.822290e+00 7.140708e+01 
3.857020e+00 7.020129e+01 
3.891920e+00 6.901856e+01 
3.926650e+00 6.786950e+01 
3.961970e+00 6.672893e+01 
3.997360e+00 6.561403e+01 
4.031670e+00 6.455898e+01 
4.066330e+00 6.352084e+01 
4.101420e+00 6.249376e+01 
4.136200e+00 6.149899e+01 
4.170810e+00 6.053118e+01 
4.206250e+00 5.956333e+01 
4.241580e+00 5.862028e+01 
4.276300e+00 5.771244e+01 
4.310970e+00 5.682473e+01 
4.346120e+00 5.594556e+01 
4.380600e+00 5.510385e+01 
4.414730e+00 5.428814e+01 
4.450350e+00 5.345534e+01 
4.485320e+00 5.265509e+01 
4.519810e+00 5.188294e+01 
4.555430e+00 5.110240e+01 
4.590870e+00 5.034211e+01 
4.625480e+00 4.961498e+01 
4.659910e+00 4.890614e+01 
4.695230e+00 4.819637e+01 
4.729960e+00 4.751287e+01 
4.764450e+00 4.684774e+01 
4.799530e+00 4.618502e+01 
4.834910e+00 4.552983e+01 
4.869700e+00 4.490038e+01 
4.904370e+00 4.428550e+01 
4.939450e+00 4.367491e+01 
4.973940e+00 4.308509e+01 
5.008430e+00 4.250631e+01 
5.043810e+00 4.192410e+01 
5.078840e+00 4.135870e+01 
5.113500e+00 4.080965e+01 
5.148890e+00 4.026343e+01 
5.184210e+00 3.972857e+01 
5.219060e+00 3.921021e+01 
5.253660e+00 3.870409e+01 
5.288570e+00 3.820258e+01 
5.323420e+00 3.771110e+01 
5.358440e+00 3.722625e+01 
5.393590e+00 3.674824e+01 
5.428310e+00 3.628676e+01 
5.462800e+00 3.583750e+01 
5.497640e+00 3.539148e+01 
5.532670e+00 3.495006e+01 
5.567280e+00 3.452116e+01 
5.602000e+00 3.409817e+01 
5.637270e+00 3.367613e+01 
5.672410e+00 3.326287e+01 
5.707020e+00 3.286265e+01 
5.742040e+00 3.246592e+01 
5.777430e+00 3.207200e+01 
5.812210e+00 3.169127e+01 
5.846820e+00 3.131897e+01 
5.881610e+00 3.095090e+01 
5.916510e+00 3.058762e+01 
5.951600e+00 3.022788e+01 
5.986560e+00 2.987507e+01 
6.021830e+00 2.952483e+01 
6.056490e+00 2.918753e+01 
6.091160e+00 2.885660e+01 
6.125830e+00 2.853081e+01 
6.161090e+00 2.820439e+01 
6.195760e+00 2.788791e+01 
6.230420e+00 2.757636e+01 
6.265690e+00 2.726423e+01 
6.300950e+00 2.695764e+01 
6.335620e+00 2.666076e+01 
6.370880e+00 2.636340e+01 
6.405550e+00 2.607629e+01 
6.440220e+00 2.579379e+01 
6.475480e+00 2.551075e+01 
6.510150e+00 2.523648e+01 
6.544810e+00 2.496604e+01 
6.580080e+00 2.469489e+01 
6.614750e+00 2.443225e+01 
6.649410e+00 2.417452e+01 
6.684080e+00 2.392061e+01 
6.719340e+00 2.366609e+01 
6.754010e+00 2.341930e+01 
6.788680e+00 2.317574e+01 
6.823940e+00 2.293155e+01 
6.859800e+00 2.268678e+01 
6.894470e+00 2.245386e+01 
6.929140e+00 2.222430e+01 
6.963800e+00 2.199798e+01 
6.999070e+00 2.177090e+01 
7.033730e+00 2.155112e+01 
7.068400e+00 2.133427e+01 
7.103660e+00 2.111676e+01 
7.138330e+00 2.090595e+01 
7.173600e+00 2.069474e+01 
7.208260e+00 2.048998e+01 
7.243530e+00 2.028442e+01 
7.277600e+00 2.008865e+01 
7.312860e+00 1.988887e+01 
7.348120e+00 1.969176e+01 
7.382790e+00 1.950051e+01 
7.417460e+00 1.931203e+01 
7.452720e+00 1.912299e+01 
7.487390e+00 1.893954e+01 
7.522650e+00 1.875540e+01 
7.557320e+00 1.857657e+01 
7.591990e+00 1.839998e+01 
7.627250e+00 1.822270e+01 
7.662510e+00 1.804770e+01 
7.697180e+00 1.787772e+01 
7.731850e+00 1.770985e+01 
7.766510e+00 1.754412e+01 
7.801180e+00 1.738042e+01 
7.836440e+00 1.721655e+01 
7.871110e+00 1.705777e+01 
7.906380e+00 1.689824e+01 
7.941040e+00 1.674341e+01 
7.976310e+00 1.658732e+01 
8.011570e+00 1.643265e+01 
8.046240e+00 1.628244e+01 
8.080900e+00 1.613409e+01 
8.115570e+00 1.598775e+01 
8.150830e+00 1.584172e+01 
8.185500e+00 1.569987e+01 
8.220770e+00 1.555729e+01 
8.255430e+00 1.541886e+01 
8.290100e+00 1.528190e+01 
8.324770e+00 1.514654e+01 
8.359430e+00 1.501282e+01 
8.394700e+00 1.487834e+01 
8.429960e+00 1.474551e+01 
8.464630e+00 1.461644e+01 
8.499890e+00 1.448671e+01 
8.534560e+00 1.436063e+01 
8.569200e+00 1.423611e+01 
