# Parameters:
# omega_b = 0.022500, omega_m = 0.137500, n_s = 0.950000, h = 69.033203, w = -1.000000,sigma_8 = 0.755000
# z = 0.640000
#
# k[1/Mpc] # P(k):
8.694000e-04 8.129962e+03 
2.077466e-03 1.712491e+04 
3.285532e-03 2.403401e+04 
4.493598e-03 2.926401e+04 
5.701664e-03 3.308465e+04 
6.909730e-03 3.573878e+04 
8.117797e-03 3.748800e+04 
9.325863e-03 3.846924e+04 
1.053393e-02 3.881638e+04 
1.174199e-02 3.865284e+04 
1.295006e-02 3.805686e+04 
1.415813e-02 3.713262e+04 
1.536619e-02 3.596774e+04 
1.657426e-02 3.462295e+04 
1.778233e-02 3.315252e+04 
1.899039e-02 3.163527e+04 
2.019846e-02 3.011349e+04 
2.140652e-02 2.862439e+04 
2.261459e-02 2.718675e+04 
2.382266e-02 2.582510e+04 
2.503072e-02 2.455582e+04 
2.623879e-02 2.338470e+04 
2.744685e-02 2.231308e+04 
2.865492e-02 2.134213e+04 
2.986299e-02 2.046675e+04 
3.100100e-02 1.972764e+04 
3.220400e-02 1.902814e+04 
3.288100e-02 1.867082e+04 
3.424300e-02 1.802043e+04 
3.555100e-02 1.746955e+04 
3.686000e-02 1.698089e+04 
3.795000e-02 1.661238e+04 
3.929100e-02 1.619985e+04 
4.039800e-02 1.588260e+04 
4.164000e-02 1.554409e+04 
4.294400e-02 1.519661e+04 
4.415000e-02 1.488016e+04 
4.542900e-02 1.453578e+04 
4.660900e-02 1.421426e+04 
4.782300e-02 1.386377e+04 
4.892900e-02 1.353630e+04 
5.031200e-02 1.311082e+04 
5.155900e-02 1.271095e+04 
5.238100e-02 1.244165e+04 
5.378200e-02 1.197587e+04 
5.513400e-02 1.152018e+04 
5.627600e-02 1.113515e+04 
5.735300e-02 1.077641e+04 
5.870100e-02 1.033763e+04 
5.988700e-02 9.965595e+03 
6.113500e-02 9.590910e+03 
6.225900e-02 9.270779e+03 
6.340100e-02 8.964516e+03 
6.480200e-02 8.615030e+03 
6.601100e-02 8.339542e+03 
6.725500e-02 8.080695e+03 
6.829100e-02 7.885800e+03 
6.958600e-02 7.663398e+03 
7.071100e-02 7.490701e+03 
7.192300e-02 7.323015e+03 
7.307400e-02 7.179858e+03 
7.412300e-02 7.061436e+03 
7.550400e-02 6.921825e+03 
7.663100e-02 6.817744e+03 
7.791200e-02 6.710120e+03 
7.912700e-02 6.614633e+03 
8.027600e-02 6.527863e+03 
8.138400e-02 6.446016e+03 
8.272200e-02 6.347781e+03 
8.406100e-02 6.248425e+03 
8.534100e-02 6.149534e+03 
8.653800e-02 6.052577e+03 
8.759800e-02 5.964122e+03 
8.900300e-02 5.842183e+03 
9.009000e-02 5.743541e+03 
9.113300e-02 5.645026e+03 
9.239600e-02 5.523879e+03 
9.358000e-02 5.407560e+03 
9.496100e-02 5.268634e+03 
9.608400e-02 5.155782e+03 
9.727500e-02 5.037108e+03 
9.852600e-02 4.912410e+03 
9.973800e-02 4.794896e+03 
1.009000e-01 4.685257e+03 
1.020900e-01 4.577311e+03 
1.034000e-01 4.463668e+03 
1.046000e-01 4.364397e+03 
1.057200e-01 4.278278e+03 
1.069100e-01 4.191006e+03 
1.082500e-01 4.100791e+03 
1.093900e-01 4.029816e+03 
1.105400e-01 3.962149e+03 
1.116900e-01 3.901342e+03 
1.129600e-01 3.837696e+03 
1.142000e-01 3.781543e+03 
1.153300e-01 3.733154e+03 
1.166400e-01 3.680802e+03 
1.177800e-01 3.637854e+03 
1.190000e-01 3.593687e+03 
1.201200e-01 3.554467e+03 
1.213400e-01 3.512817e+03 
1.227100e-01 3.466022e+03 
1.238900e-01 3.426237e+03 
1.250700e-01 3.385669e+03 
1.263200e-01 3.342804e+03 
1.275500e-01 3.299621e+03 
1.287500e-01 3.257291e+03 
1.299900e-01 3.212699e+03 
1.311300e-01 3.171498e+03 
1.323500e-01 3.126687e+03 
1.335900e-01 3.081197e+03 
1.347100e-01 3.039703e+03 
1.359800e-01 2.993081e+03 
1.372100e-01 2.947736e+03 
1.384300e-01 2.903467e+03 
1.395700e-01 2.862252e+03 
1.407700e-01 2.819767e+03 
1.420300e-01 2.775778e+03 
1.432800e-01 2.733134e+03 
1.444500e-01 2.694310e+03 
1.456300e-01 2.655977e+03 
1.468900e-01 2.616642e+03 
1.480500e-01 2.581407e+03 
1.491700e-01 2.548592e+03 
1.503800e-01 2.514524e+03 
1.516400e-01 2.480067e+03 
1.528200e-01 2.449675e+03 
1.540200e-01 2.419372e+03 
1.551900e-01 2.391540e+03 
1.564300e-01 2.362889e+03 
1.576600e-01 2.335556e+03 
1.588700e-01 2.309820e+03 
1.600900e-01 2.284397e+03 
1.612700e-01 2.260982e+03 
1.625400e-01 2.236249e+03 
1.637600e-01 2.213083e+03 
1.649500e-01 2.190980e+03 
1.662200e-01 2.167787e+03 
1.674000e-01 2.146441e+03 
1.685000e-01 2.126874e+03 
1.697500e-01 2.104717e+03 
1.710300e-01 2.082143e+03 
1.722200e-01 2.061529e+03 
1.734400e-01 2.039994e+03 
1.746400e-01 2.019145e+03 
1.758700e-01 1.997904e+03 
1.770900e-01 1.976712e+03 
1.782700e-01 1.956561e+03 
1.794600e-01 1.936244e+03 
1.807000e-01 1.915207e+03 
1.819100e-01 1.895028e+03 
1.830100e-01 1.876744e+03 
1.842200e-01 1.856912e+03 
1.855000e-01 1.836289e+03 
1.867000e-01 1.817261e+03 
1.879200e-01 1.798232e+03 
1.890900e-01 1.780308e+03 
1.902800e-01 1.762532e+03 
1.915200e-01 1.744307e+03 
1.926900e-01 1.727458e+03 
1.939000e-01 1.710547e+03 
1.951700e-01 1.693082e+03 
1.963100e-01 1.677743e+03 
1.975100e-01 1.662093e+03 
1.987800e-01 1.645788e+03 
2.000100e-01 1.630338e+03 
2.012500e-01 1.615218e+03 
2.023400e-01 1.602118e+03 
2.036100e-01 1.587126e+03 
2.048900e-01 1.572439e+03 
2.060400e-01 1.559437e+03 
2.072200e-01 1.546293e+03 
2.084200e-01 1.533231e+03 
2.096900e-01 1.519610e+03 
2.109200e-01 1.506612e+03 
2.121100e-01 1.494230e+03 
2.132700e-01 1.482326e+03 
2.145200e-01 1.469677e+03 
2.157200e-01 1.457694e+03 
2.168800e-01 1.446261e+03 
2.180700e-01 1.434689e+03 
2.193400e-01 1.422487e+03 
2.206000e-01 1.410506e+03 
2.217500e-01 1.399720e+03 
2.229500e-01 1.388612e+03 
2.241400e-01 1.377689e+03 
2.253500e-01 1.366729e+03 
2.264900e-01 1.356537e+03 
2.277100e-01 1.345750e+03 
2.289900e-01 1.334565e+03 
2.301500e-01 1.324562e+03 
2.313600e-01 1.314261e+03 
2.325600e-01 1.304170e+03 
2.337700e-01 1.294125e+03 
2.350000e-01 1.284046e+03 
2.362000e-01 1.274345e+03 
2.374100e-01 1.264693e+03 
2.386500e-01 1.254928e+03 
2.399100e-01 1.245135e+03 
2.410400e-01 1.236501e+03 
2.422500e-01 1.227373e+03 
2.435000e-01 1.218062e+03 
2.447300e-01 1.209024e+03 
2.458700e-01 1.200788e+03 
2.470600e-01 1.192292e+03 
2.483300e-01 1.183336e+03 
2.495600e-01 1.174795e+03 
2.507600e-01 1.166599e+03 
2.519600e-01 1.158500e+03 
2.532200e-01 1.150098e+03 
2.543700e-01 1.142552e+03 
2.555500e-01 1.134918e+03 
2.568000e-01 1.126927e+03 
2.580100e-01 1.119283e+03 
2.592400e-01 1.111637e+03 
2.604100e-01 1.104461e+03 
2.616100e-01 1.097185e+03 
2.628400e-01 1.089812e+03 
2.640600e-01 1.082612e+03 
2.652200e-01 1.075853e+03 
2.664300e-01 1.068881e+03 
2.676500e-01 1.061931e+03 
2.688400e-01 1.055245e+03 
2.700700e-01 1.048423e+03 
2.712400e-01 1.042005e+03 
2.724800e-01 1.035277e+03 
2.736700e-01 1.028898e+03 
2.748800e-01 1.022488e+03 
2.761000e-01 1.016095e+03 
2.773200e-01 1.009772e+03 
2.785400e-01 1.003520e+03 
2.797000e-01 9.976448e+02 
2.808900e-01 9.916800e+02 
2.821400e-01 9.854813e+02 
2.833900e-01 9.793503e+02 
2.845500e-01 9.737215e+02 
2.857800e-01 9.678146e+02 
2.870300e-01 9.618757e+02 
2.882100e-01 9.563279e+02 
2.893900e-01 9.508395e+02 
2.906300e-01 9.451333e+02 
2.918900e-01 9.393965e+02 
2.930500e-01 9.341688e+02 
2.942500e-01 9.288136e+02 
2.954200e-01 9.236414e+02 
2.966500e-01 9.182583e+02 
2.978900e-01 9.128870e+02 
2.990400e-01 9.079547e+02 
3.002700e-01 9.027343e+02 
3.015100e-01 8.975262e+02 
3.026800e-01 8.926605e+02 
3.038500e-01 8.878411e+02 
3.050300e-01 8.830267e+02 
3.062600e-01 8.780609e+02 
3.075000e-01 8.731044e+02 
3.087000e-01 8.683545e+02 
3.099100e-01 8.636111e+02 
3.111200e-01 8.589169e+02 
3.123100e-01 8.543503e+02 
3.135300e-01 8.497131e+02 
3.147300e-01 8.451951e+02 
3.159900e-01 8.404969e+02 
3.171800e-01 8.361069e+02 
3.183700e-01 8.317607e+02 
3.196300e-01 8.272023e+02 
3.208400e-01 8.228664e+02 
3.220300e-01 8.186414e+02 
3.232000e-01 8.145371e+02 
3.244300e-01 8.102665e+02 
3.256700e-01 8.060014e+02 
3.269200e-01 8.017423e+02 
3.280800e-01 7.978257e+02 
3.292500e-01 7.939217e+02 
3.304800e-01 7.898579e+02 
3.317100e-01 7.858313e+02 
3.328900e-01 7.820028e+02 
3.340700e-01 7.782077e+02 
3.353600e-01 7.741113e+02 
3.365300e-01 7.704351e+02 
3.377100e-01 7.667592e+02 
3.389200e-01 7.630226e+02 
3.401600e-01 7.592272e+02 
3.413700e-01 7.555669e+02 
3.425300e-01 7.520950e+02 
3.437700e-01 7.484155e+02 
3.449800e-01 7.448563e+02 
3.461800e-01 7.413569e+02 
3.473600e-01 7.379513e+02 
3.485800e-01 7.344761e+02 
3.498100e-01 7.310027e+02 
3.510200e-01 7.276149e+02 
3.522000e-01 7.243386e+02 
3.533900e-01 7.210619e+02 
3.546400e-01 7.176664e+02 
3.558400e-01 7.144354e+02 
3.570600e-01 7.111778e+02 
3.582700e-01 7.079739e+02 
3.595000e-01 7.047441e+02 
3.607100e-01 7.016029e+02 
3.618900e-01 6.985720e+02 
3.631200e-01 6.954384e+02 
3.643200e-01 6.924062e+02 
3.655500e-01 6.893236e+02 
3.667300e-01 6.863902e+02 
3.679500e-01 6.833979e+02 
3.691900e-01 6.803814e+02 
3.703600e-01 6.775580e+02 
3.715700e-01 6.746609e+02 
3.727700e-01 6.718106e+02 
3.739900e-01 6.689418e+02 
3.752000e-01 6.661300e+02 
3.763900e-01 6.633864e+02 
3.775800e-01 6.606639e+02 
3.788200e-01 6.578494e+02 
3.800300e-01 6.551247e+02 
3.812100e-01 6.524915e+02 
3.824200e-01 6.498145e+02 
3.836100e-01 6.472019e+02 
3.848600e-01 6.444790e+02 
3.860400e-01 6.419283e+02 
3.872400e-01 6.393540e+02 
3.884600e-01 6.367688e+02 
3.896500e-01 6.342709e+02 
3.908700e-01 6.317294e+02 
3.920600e-01 6.292690e+02 
3.933100e-01 6.267043e+02 
3.945300e-01 6.242203e+02 
3.957200e-01 6.218200e+02 
3.969300e-01 6.193987e+02 
3.981700e-01 6.169361e+02 
3.993500e-01 6.146100e+02 
4.094840e-01 5.953073e+02 
4.272360e-01 5.643336e+02 
4.454600e-01 5.356232e+02 
4.630560e-01 5.104503e+02 
4.804610e-01 4.876801e+02 
4.980690e-01 4.665406e+02 
5.159230e-01 4.468345e+02 
5.317440e-01 4.306812e+02 
5.489640e-01 4.143613e+02 
5.671990e-01 3.983997e+02 
5.838690e-01 3.848682e+02 
6.018840e-01 3.712983e+02 
6.202330e-01 3.585039e+02 
6.379250e-01 3.470124e+02 
6.545410e-01 3.369583e+02 
6.714560e-01 3.273463e+02 
6.892080e-01 3.179067e+02 
7.066010e-01 3.092175e+02 
7.240540e-01 3.010036e+02 
7.420450e-01 2.930476e+02 
7.593780e-01 2.857943e+02 
7.764720e-01 2.790101e+02 
7.942840e-01 2.723047e+02 
8.116170e-01 2.660894e+02 
8.288310e-01 2.602077e+02 
8.462240e-01 2.545204e+02 
8.631980e-01 2.492035e+02 
8.810700e-01 2.438378e+02 
8.989410e-01 2.386926e+02 
9.166330e-01 2.337916e+02 
9.345640e-01 2.290044e+02 
9.515980e-01 2.246159e+02 
9.688720e-01 2.203165e+02 
9.865640e-01 2.160541e+02 
1.031870e+00 2.057529e+02 
1.063490e+00 1.990054e+02 
1.097920e+00 1.920811e+02 
1.134370e+00 1.851148e+02 
1.167730e+00 1.790733e+02 
1.203830e+00 1.728507e+02 
1.240470e+00 1.668680e+02 
1.275790e+00 1.613501e+02 
1.309140e+00 1.563964e+02 
1.342970e+00 1.515548e+02 
1.378420e+00 1.467312e+02 
1.413200e+00 1.421969e+02 
1.448110e+00 1.378260e+02 
1.484090e+00 1.335323e+02 
1.518820e+00 1.295428e+02 
1.552880e+00 1.257968e+02 
1.588630e+00 1.220137e+02 
1.623230e+00 1.185119e+02 
1.657720e+00 1.151545e+02 
1.692450e+00 1.119261e+02 
1.726400e+00 1.088595e+02 
1.762200e+00 1.057488e+02 
1.797880e+00 1.027811e+02 
1.833270e+00 9.993850e+01 
1.869070e+00 9.718237e+01 
1.903200e+00 9.465069e+01 
1.937740e+00 9.217804e+01 
1.973190e+00 8.972919e+01 
2.007440e+00 8.745030e+01 
2.042160e+00 8.522760e+01 
2.077900e+00 8.300748e+01 
2.112390e+00 8.095289e+01 
2.146220e+00 7.898629e+01 
2.181600e+00 7.701124e+01 
2.216930e+00 7.510725e+01 
2.250760e+00 7.333640e+01 
2.286500e+00 7.152526e+01 
2.321770e+00 6.980661e+01 
2.355950e+00 6.820244e+01 
2.391280e+00 6.658462e+01 
2.426240e+00 6.503479e+01 
2.460670e+00 6.355612e+01 
2.495640e+00 6.210086e+01 
2.531080e+00 6.067996e+01 
2.566220e+00 5.930701e+01 
2.600830e+00 5.799755e+01 
2.635080e+00 5.674534e+01 
2.670340e+00 5.548390e+01 
2.705970e+00 5.425375e+01 
2.740040e+00 5.311541e+01 
2.774520e+00 5.199397e+01 
2.809730e+00 5.088206e+01 
2.844390e+00 4.981968e+01 
2.879960e+00 4.875960e+01 
2.914860e+00 4.774868e+01 
2.949410e+00 4.677658e+01 
2.984440e+00 4.581768e+01 
3.019760e+00 4.488070e+01 
3.054730e+00 4.398070e+01 
3.089030e+00 4.311586e+01 
3.124060e+00 4.225899e+01 
3.159560e+00 4.141709e+01 
3.194710e+00 4.060167e+01 
3.229010e+00 3.982677e+01 
3.263320e+00 3.907420e+01 
3.297930e+00 3.833520e+01 
3.332830e+00 3.760903e+01 
3.368040e+00 3.689516e+01 
3.403300e+00 3.619882e+01 
3.438450e+00 3.552155e+01 
3.473060e+00 3.487197e+01 
3.508440e+00 3.422781e+01 
3.543110e+00 3.361235e+01 
3.577470e+00 3.301355e+01 
3.613040e+00 3.241015e+01 
3.648120e+00 3.183190e+01 
3.682910e+00 3.127226e+01 
3.718050e+00 3.071994e+01 
3.753320e+00 3.017917e+01 
3.787980e+00 2.966044e+01 
3.822290e+00 2.915992e+01 
3.857020e+00 2.866627e+01 
3.891920e+00 2.818076e+01 
3.926650e+00 2.770671e+01 
3.961970e+00 2.723657e+01 
3.997360e+00 2.677794e+01 
4.031670e+00 2.634353e+01 
4.066330e+00 2.591426e+01 
4.101420e+00 2.548965e+01 
4.136200e+00 2.507953e+01 
4.170810e+00 2.468057e+01 
4.206250e+00 2.428070e+01 
4.241580e+00 2.389096e+01 
4.276300e+00 2.351651e+01 
4.310970e+00 2.315080e+01 
4.346120e+00 2.278826e+01 
4.380600e+00 2.244058e+01 
4.414730e+00 2.210369e+01 
4.450350e+00 2.175959e+01 
4.485320e+00 2.142900e+01 
4.519810e+00 2.111011e+01 
4.555430e+00 2.078782e+01 
4.590870e+00 2.047407e+01 
4.625480e+00 2.017432e+01 
4.659910e+00 1.988214e+01 
4.695230e+00 1.958878e+01 
4.729960e+00 1.930618e+01 
4.764450e+00 1.903124e+01 
4.799530e+00 1.875738e+01 
4.834910e+00 1.848667e+01 
4.869700e+00 1.822635e+01 
4.904370e+00 1.797205e+01 
4.939450e+00 1.771982e+01 
4.973940e+00 1.747687e+01 
5.008430e+00 1.723849e+01 
5.043810e+00 1.699893e+01 
5.078840e+00 1.676643e+01 
5.113500e+00 1.654068e+01 
5.148890e+00 1.631512e+01 
5.184210e+00 1.609425e+01 
5.219060e+00 1.588041e+01 
5.253660e+00 1.567222e+01 
5.288570e+00 1.546595e+01 
5.323420e+00 1.526409e+01 
5.358440e+00 1.506527e+01 
5.393590e+00 1.486927e+01 
5.428310e+00 1.467940e+01 
5.462800e+00 1.449424e+01 
5.497640e+00 1.431044e+01 
5.532670e+00 1.412941e+01 
5.567280e+00 1.395380e+01 
5.602000e+00 1.378063e+01 
5.637270e+00 1.360796e+01 
5.672410e+00 1.343892e+01 
5.707020e+00 1.327523e+01 
5.742040e+00 1.311297e+01 
5.777430e+00 1.295187e+01 
5.812210e+00 1.279618e+01 
5.846820e+00 1.264406e+01 
5.881610e+00 1.249369e+01 
5.916510e+00 1.234530e+01 
5.951600e+00 1.219897e+01 
5.986560e+00 1.205573e+01 
6.021830e+00 1.191354e+01 
6.056490e+00 1.177630e+01 
6.091160e+00 1.164139e+01 
6.125830e+00 1.150859e+01 
6.161090e+00 1.137576e+01 
6.195760e+00 1.124744e+01 
6.230420e+00 1.112112e+01 
6.265690e+00 1.099458e+01 
6.300950e+00 1.087059e+01 
6.335620e+00 1.075052e+01 
6.370880e+00 1.063027e+01 
6.405550e+00 1.051408e+01 
6.440220e+00 1.039973e+01 
6.475480e+00 1.028517e+01 
6.510150e+00 1.017435e+01 
6.544810e+00 1.006552e+01 
6.580080e+00 9.956392e+00 
6.614750e+00 9.850692e+00 
6.649410e+00 9.746814e+00 
6.684080e+00 9.644448e+00 
6.719340e+00 9.541838e+00 
6.754010e+00 9.442508e+00 
6.788680e+00 9.344857e+00 
6.823940e+00 9.246952e+00 
6.859800e+00 9.148808e+00 
6.894470e+00 9.055525e+00 
6.929140e+00 8.963626e+00 
6.963800e+00 8.873020e+00 
6.999070e+00 8.782116e+00 
7.033730e+00 8.694336e+00 
7.068400e+00 8.607722e+00 
7.103660e+00 8.520834e+00 
7.138330e+00 8.436682e+00 
7.173600e+00 8.352484e+00 
7.208260e+00 8.270854e+00 
7.243530e+00 8.188897e+00 
7.277600e+00 8.110883e+00 
7.312860e+00 8.031305e+00 
7.348120e+00 7.952785e+00 
7.382790e+00 7.876593e+00 
7.417460e+00 7.801627e+00 
7.452720e+00 7.726502e+00 
7.487390e+00 7.653589e+00 
7.522650e+00 7.580391e+00 
7.557320e+00 7.509523e+00 
7.591990e+00 7.439620e+00 
7.627250e+00 7.369431e+00 
7.662510e+00 7.300138e+00 
7.697180e+00 7.233062e+00 
7.731850e+00 7.166898e+00 
7.766510e+00 7.101572e+00 
7.801180e+00 7.037032e+00 
7.836440e+00 6.972326e+00 
7.871110e+00 6.909559e+00 
7.906380e+00 6.846490e+00 
7.941040e+00 6.785271e+00 
7.976310e+00 6.723843e+00 
8.011570e+00 6.663317e+00 
8.046240e+00 6.604522e+00 
8.080900e+00 6.546444e+00 
8.115570e+00 6.489093e+00 
8.150830e+00 6.431659e+00 
8.185500e+00 6.375857e+00 
8.220770e+00 6.319760e+00 
8.255430e+00 6.265282e+00 
8.290100e+00 6.211580e+00 
8.324770e+00 6.158517e+00 
8.359430e+00 6.106082e+00 
8.394700e+00 6.053342e+00 
8.429960e+00 6.001329e+00 
8.464630e+00 5.950874e+00 
8.499890e+00 5.900148e+00 
8.534560e+00 5.850839e+00 
8.569200e+00 5.802128e+00 
