# Parameters:
# omega_b = 0.022500, omega_m = 0.137500, n_s = 0.950000, h = 69.033203, w = -1.000000,sigma_8 = 0.755000
# z = 0.560000
#
# k[1/Mpc] # P(k):
8.694000e-04 8.790339e+03 
2.077466e-03 1.851570e+04 
3.285532e-03 2.598545e+04 
4.493598e-03 3.163957e+04 
5.701664e-03 3.576967e+04 
6.909730e-03 3.863823e+04 
8.117797e-03 4.052853e+04 
9.325863e-03 4.158822e+04 
1.053393e-02 4.196243e+04 
1.174199e-02 4.178438e+04 
1.295006e-02 4.113875e+04 
1.415813e-02 4.013849e+04 
1.536619e-02 3.887825e+04 
1.657426e-02 3.742350e+04 
1.778233e-02 3.583289e+04 
1.899039e-02 3.419208e+04 
2.019846e-02 3.254674e+04 
2.140652e-02 3.093655e+04 
2.261459e-02 2.938236e+04 
2.382266e-02 2.791048e+04 
2.503072e-02 2.653853e+04 
2.623879e-02 2.527271e+04 
2.744685e-02 2.411458e+04 
2.865492e-02 2.306514e+04 
2.986299e-02 2.211923e+04 
3.100100e-02 2.132032e+04 
3.220400e-02 2.056453e+04 
3.288100e-02 2.017819e+04 
3.424300e-02 1.947514e+04 
3.555100e-02 1.887956e+04 
3.686000e-02 1.835115e+04 
3.795000e-02 1.795257e+04 
3.929100e-02 1.750627e+04 
4.039800e-02 1.716291e+04 
4.164000e-02 1.679657e+04 
4.294400e-02 1.642048e+04 
4.415000e-02 1.607788e+04 
4.542900e-02 1.570534e+04 
4.660900e-02 1.535761e+04 
4.782300e-02 1.497880e+04 
4.892900e-02 1.462504e+04 
5.031200e-02 1.416549e+04 
5.155900e-02 1.373394e+04 
5.238100e-02 1.344339e+04 
5.378200e-02 1.294114e+04 
5.513400e-02 1.245006e+04 
5.627600e-02 1.203522e+04 
5.735300e-02 1.164881e+04 
5.870100e-02 1.117632e+04 
5.988700e-02 1.077576e+04 
6.113500e-02 1.037235e+04 
6.225900e-02 1.002770e+04 
6.340100e-02 9.697942e+03 
6.480200e-02 9.321607e+03 
6.601100e-02 9.024869e+03 
6.725500e-02 8.745988e+03 
6.829100e-02 8.535865e+03 
6.958600e-02 8.295934e+03 
7.071100e-02 8.109481e+03 
7.192300e-02 7.928344e+03 
7.307400e-02 7.773542e+03 
7.412300e-02 7.645358e+03 
7.550400e-02 7.494117e+03 
7.663100e-02 7.381252e+03 
7.791200e-02 7.264397e+03 
7.912700e-02 7.160678e+03 
8.027600e-02 7.066337e+03 
8.138400e-02 6.977363e+03 
8.272200e-02 6.870675e+03 
8.406100e-02 6.762872e+03 
8.534100e-02 6.655648e+03 
8.653800e-02 6.550707e+03 
8.759800e-02 6.455072e+03 
8.900300e-02 6.323394e+03 
9.009000e-02 6.217010e+03 
9.113300e-02 6.110900e+03 
9.239600e-02 5.980515e+03 
9.358000e-02 5.855434e+03 
9.496100e-02 5.706197e+03 
9.608400e-02 5.585053e+03 
9.727500e-02 5.457721e+03 
9.852600e-02 5.324008e+03 
9.973800e-02 5.198039e+03 
1.009000e-01 5.080546e+03 
1.020900e-01 4.964896e+03 
1.034000e-01 4.843129e+03 
1.046000e-01 4.736744e+03 
1.057200e-01 4.644411e+03 
1.069100e-01 4.550807e+03 
1.082500e-01 4.453945e+03 
1.093900e-01 4.377677e+03 
1.105400e-01 4.304924e+03 
1.116900e-01 4.239408e+03 
1.129600e-01 4.170784e+03 
1.142000e-01 4.110122e+03 
1.153300e-01 4.057776e+03 
1.166400e-01 4.001031e+03 
1.177800e-01 3.954417e+03 
1.190000e-01 3.906450e+03 
1.201200e-01 3.863780e+03 
1.213400e-01 3.818453e+03 
1.227100e-01 3.767536e+03 
1.238900e-01 3.724259e+03 
1.250700e-01 3.680171e+03 
1.263200e-01 3.633620e+03 
1.275500e-01 3.586798e+03 
1.287500e-01 3.540942e+03 
1.299900e-01 3.492699e+03 
1.311300e-01 3.448172e+03 
1.323500e-01 3.399818e+03 
1.335900e-01 3.350792e+03 
1.347100e-01 3.306150e+03 
1.359800e-01 3.256027e+03 
1.372100e-01 3.207350e+03 
1.384300e-01 3.159851e+03 
1.395700e-01 3.115687e+03 
1.407700e-01 3.070160e+03 
1.420300e-01 3.023056e+03 
1.432800e-01 2.977386e+03 
1.444500e-01 2.935860e+03 
1.456300e-01 2.894855e+03 
1.468900e-01 2.852739e+03 
1.480500e-01 2.814999e+03 
1.491700e-01 2.779822e+03 
1.503800e-01 2.743269e+03 
1.516400e-01 2.706279e+03 
1.528200e-01 2.673581e+03 
1.540200e-01 2.640975e+03 
1.551900e-01 2.610956e+03 
1.564300e-01 2.580035e+03 
1.576600e-01 2.550494e+03 
1.588700e-01 2.522627e+03 
1.600900e-01 2.495096e+03 
1.612700e-01 2.469685e+03 
1.625400e-01 2.442843e+03 
1.637600e-01 2.417686e+03 
1.649500e-01 2.393676e+03 
1.662200e-01 2.368484e+03 
1.674000e-01 2.345315e+03 
1.685000e-01 2.324078e+03 
1.697500e-01 2.300051e+03 
1.710300e-01 2.275594e+03 
1.722200e-01 2.253260e+03 
1.734400e-01 2.229996e+03 
1.746400e-01 2.207475e+03 
1.758700e-01 2.184548e+03 
1.770900e-01 2.161711e+03 
1.782700e-01 2.139995e+03 
1.794600e-01 2.118126e+03 
1.807000e-01 2.095500e+03 
1.819100e-01 2.073796e+03 
1.830100e-01 2.054150e+03 
1.842200e-01 2.032842e+03 
1.855000e-01 2.010683e+03 
1.867000e-01 1.990239e+03 
1.879200e-01 1.969793e+03 
1.890900e-01 1.950530e+03 
1.902800e-01 1.931414e+03 
1.915200e-01 1.911812e+03 
1.926900e-01 1.893684e+03 
1.939000e-01 1.875467e+03 
1.951700e-01 1.856653e+03 
1.963100e-01 1.840121e+03 
1.975100e-01 1.823235e+03 
1.987800e-01 1.805643e+03 
2.000100e-01 1.788964e+03 
2.012500e-01 1.772624e+03 
2.023400e-01 1.758467e+03 
2.036100e-01 1.742259e+03 
2.048900e-01 1.726365e+03 
2.060400e-01 1.712294e+03 
2.072200e-01 1.698068e+03 
2.084200e-01 1.683920e+03 
2.096900e-01 1.669166e+03 
2.109200e-01 1.655086e+03 
2.121100e-01 1.641677e+03 
2.132700e-01 1.628785e+03 
2.145200e-01 1.615087e+03 
2.157200e-01 1.602109e+03 
2.168800e-01 1.589727e+03 
2.180700e-01 1.577195e+03 
2.193400e-01 1.563984e+03 
2.206000e-01 1.551025e+03 
2.217500e-01 1.539357e+03 
2.229500e-01 1.527341e+03 
2.241400e-01 1.515538e+03 
2.253500e-01 1.503695e+03 
2.264900e-01 1.492681e+03 
2.277100e-01 1.481029e+03 
2.289900e-01 1.468950e+03 
2.301500e-01 1.458148e+03 
2.313600e-01 1.447023e+03 
2.325600e-01 1.436134e+03 
2.337700e-01 1.425294e+03 
2.350000e-01 1.414417e+03 
2.362000e-01 1.403952e+03 
2.374100e-01 1.393547e+03 
2.386500e-01 1.383019e+03 
2.399100e-01 1.372460e+03 
2.410400e-01 1.363151e+03 
2.422500e-01 1.353307e+03 
2.435000e-01 1.343266e+03 
2.447300e-01 1.333521e+03 
2.458700e-01 1.324639e+03 
2.470600e-01 1.315475e+03 
2.483300e-01 1.305816e+03 
2.495600e-01 1.296604e+03 
2.507600e-01 1.287764e+03 
2.519600e-01 1.279027e+03 
2.532200e-01 1.269964e+03 
2.543700e-01 1.261821e+03 
2.555500e-01 1.253581e+03 
2.568000e-01 1.244954e+03 
2.580100e-01 1.236701e+03 
2.592400e-01 1.228443e+03 
2.604100e-01 1.220692e+03 
2.616100e-01 1.212830e+03 
2.628400e-01 1.204865e+03 
2.640600e-01 1.197082e+03 
2.652200e-01 1.189774e+03 
2.664300e-01 1.182236e+03 
2.676500e-01 1.174720e+03 
2.688400e-01 1.167488e+03 
2.700700e-01 1.160106e+03 
2.712400e-01 1.153161e+03 
2.724800e-01 1.145881e+03 
2.736700e-01 1.138973e+03 
2.748800e-01 1.132029e+03 
2.761000e-01 1.125103e+03 
2.773200e-01 1.118253e+03 
2.785400e-01 1.111478e+03 
2.797000e-01 1.105110e+03 
2.808900e-01 1.098645e+03 
2.821400e-01 1.091926e+03 
2.833900e-01 1.085280e+03 
2.845500e-01 1.079175e+03 
2.857800e-01 1.072770e+03 
2.870300e-01 1.066329e+03 
2.882100e-01 1.060312e+03 
2.893900e-01 1.054356e+03 
2.906300e-01 1.048162e+03 
2.918900e-01 1.041934e+03 
2.930500e-01 1.036258e+03 
2.942500e-01 1.030445e+03 
2.954200e-01 1.024831e+03 
2.966500e-01 1.018987e+03 
2.978900e-01 1.013157e+03 
2.990400e-01 1.007803e+03 
3.002700e-01 1.002134e+03 
3.015100e-01 9.964790e+02 
3.026800e-01 9.911951e+02 
3.038500e-01 9.859613e+02 
3.050300e-01 9.807330e+02 
3.062600e-01 9.753403e+02 
3.075000e-01 9.699575e+02 
3.087000e-01 9.647990e+02 
3.099100e-01 9.596474e+02 
3.111200e-01 9.545491e+02 
3.123100e-01 9.495894e+02 
3.135300e-01 9.445529e+02 
3.147300e-01 9.396457e+02 
3.159900e-01 9.345426e+02 
3.171800e-01 9.297752e+02 
3.183700e-01 9.250558e+02 
3.196300e-01 9.201059e+02 
3.208400e-01 9.153974e+02 
3.220300e-01 9.108092e+02 
3.232000e-01 9.063522e+02 
3.244300e-01 9.017146e+02 
3.256700e-01 8.970828e+02 
3.269200e-01 8.924575e+02 
3.280800e-01 8.882039e+02 
3.292500e-01 8.839642e+02 
3.304800e-01 8.795511e+02 
3.317100e-01 8.751782e+02 
3.328900e-01 8.710203e+02 
3.340700e-01 8.668986e+02 
3.353600e-01 8.624496e+02 
3.365300e-01 8.584568e+02 
3.377100e-01 8.544643e+02 
3.389200e-01 8.504058e+02 
3.401600e-01 8.462834e+02 
3.413700e-01 8.423075e+02 
3.425300e-01 8.385361e+02 
3.437700e-01 8.345392e+02 
3.449800e-01 8.306729e+02 
3.461800e-01 8.268714e+02 
3.473600e-01 8.231711e+02 
3.485800e-01 8.193936e+02 
3.498100e-01 8.156178e+02 
3.510200e-01 8.119350e+02 
3.522000e-01 8.083735e+02 
3.533900e-01 8.048113e+02 
3.546400e-01 8.011208e+02 
3.558400e-01 7.976090e+02 
3.570600e-01 7.940684e+02 
3.582700e-01 7.905859e+02 
3.595000e-01 7.870754e+02 
3.607100e-01 7.836604e+02 
3.618900e-01 7.803647e+02 
3.631200e-01 7.769573e+02 
3.643200e-01 7.736602e+02 
3.655500e-01 7.703082e+02 
3.667300e-01 7.671183e+02 
3.679500e-01 7.638679e+02 
3.691900e-01 7.605912e+02 
3.703600e-01 7.575241e+02 
3.715700e-01 7.543770e+02 
3.727700e-01 7.512806e+02 
3.739900e-01 7.481620e+02 
3.752000e-01 7.451015e+02 
3.763900e-01 7.421150e+02 
3.775800e-01 7.391516e+02 
3.788200e-01 7.360879e+02 
3.800300e-01 7.331220e+02 
3.812100e-01 7.302506e+02 
3.824200e-01 7.273279e+02 
3.836100e-01 7.244756e+02 
3.848600e-01 7.215027e+02 
3.860400e-01 7.187180e+02 
3.872400e-01 7.159073e+02 
3.884600e-01 7.130914e+02 
3.896500e-01 7.103729e+02 
3.908700e-01 7.076070e+02 
3.920600e-01 7.049293e+02 
3.933100e-01 7.021381e+02 
3.945300e-01 6.994347e+02 
3.957200e-01 6.968165e+02 
3.969300e-01 6.941738e+02 
3.981700e-01 6.914860e+02 
3.993500e-01 6.889472e+02 
4.094840e-01 6.678490e+02 
4.272360e-01 6.340031e+02 
4.454600e-01 6.025612e+02 
4.630560e-01 5.749389e+02 
4.804610e-01 5.499074e+02 
4.980690e-01 5.266616e+02 
5.159230e-01 5.049645e+02 
5.317440e-01 4.871884e+02 
5.489640e-01 4.691828e+02 
5.671990e-01 4.515370e+02 
5.838690e-01 4.365756e+02 
6.018840e-01 4.215636e+02 
6.202330e-01 4.073952e+02 
6.379250e-01 3.946343e+02 
6.545410e-01 3.834524e+02 
6.714560e-01 3.727558e+02 
6.892080e-01 3.622188e+02 
7.066010e-01 3.524845e+02 
7.240540e-01 3.432809e+02 
7.420450e-01 3.343661e+02 
7.593780e-01 3.261903e+02 
7.764720e-01 3.185437e+02 
7.942840e-01 3.109808e+02 
8.116170e-01 3.039317e+02 
8.288310e-01 2.972655e+02 
8.462240e-01 2.907926e+02 
8.631980e-01 2.847370e+02 
8.810700e-01 2.786217e+02 
8.989410e-01 2.727553e+02 
9.166330e-01 2.671531e+02 
9.345640e-01 2.616607e+02 
9.515980e-01 2.566237e+02 
9.688720e-01 2.516930e+02 
9.865640e-01 2.467972e+02 
1.031870e+00 2.349344e+02 
1.063490e+00 2.271679e+02 
1.097920e+00 2.191598e+02 
1.134370e+00 2.111337e+02 
1.167730e+00 2.041428e+02 
1.203830e+00 1.969568e+02 
1.240470e+00 1.900375e+02 
1.275790e+00 1.836585e+02 
1.309140e+00 1.779329e+02 
1.342970e+00 1.723392e+02 
1.378420e+00 1.667703e+02 
1.413200e+00 1.615304e+02 
1.448110e+00 1.564914e+02 
1.484090e+00 1.515367e+02 
1.518820e+00 1.469457e+02 
1.552880e+00 1.426209e+02 
1.588630e+00 1.382712e+02 
1.623230e+00 1.342410e+02 
1.657720e+00 1.303801e+02 
1.692450e+00 1.266699e+02 
1.726400e+00 1.231490e+02 
1.762200e+00 1.195787e+02 
1.797880e+00 1.161710e+02 
1.833270e+00 1.129177e+02 
1.869070e+00 1.097561e+02 
1.903200e+00 1.068592e+02 
1.937740e+00 1.040314e+02 
1.973190e+00 1.012326e+02 
2.007440e+00 9.862751e+01 
2.042160e+00 9.608416e+01 
2.077900e+00 9.355097e+01 
2.112390e+00 9.120759e+01 
2.146220e+00 8.896598e+01 
2.181600e+00 8.671567e+01 
2.216930e+00 8.454724e+01 
2.250760e+00 8.253430e+01 
2.286500e+00 8.047682e+01 
2.321770e+00 7.852086e+01 
2.355950e+00 7.669191e+01 
2.391280e+00 7.485292e+01 
2.426240e+00 7.309518e+01 
2.460670e+00 7.141841e+01 
2.495640e+00 6.976612e+01 
2.531080e+00 6.815339e+01 
2.566220e+00 6.659859e+01 
2.600830e+00 6.511541e+01 
2.635080e+00 6.369537e+01 
2.670340e+00 6.226896e+01 
2.705970e+00 6.087818e+01 
2.740040e+00 5.959083e+01 
2.774520e+00 5.832046e+01 
2.809730e+00 5.706340e+01 
2.844390e+00 5.586338e+01 
2.879960e+00 5.466621e+01 
2.914860e+00 5.352483e+01 
2.949410e+00 5.242793e+01 
2.984440e+00 5.134819e+01 
3.019760e+00 5.029012e+01 
3.054730e+00 4.927240e+01 
3.089030e+00 4.829908e+01 
3.124060e+00 4.733391e+01 
3.159560e+00 4.638438e+01 
3.194710e+00 4.546813e+01 
3.229010e+00 4.459815e+01 
3.263320e+00 4.374965e+01 
3.297930e+00 4.291715e+01 
3.332830e+00 4.210048e+01 
3.368040e+00 4.129771e+01 
3.403300e+00 4.051472e+01 
3.438450e+00 3.975324e+01 
3.473060e+00 3.902294e+01 
3.508440e+00 3.829877e+01 
3.543110e+00 3.760713e+01 
3.577470e+00 3.693556e+01 
3.613040e+00 3.625885e+01 
3.648120e+00 3.561033e+01 
3.682910e+00 3.498224e+01 
3.718050e+00 3.436147e+01 
3.753320e+00 3.375477e+01 
3.787980e+00 3.317436e+01 
3.822290e+00 3.261334e+01 
3.857020e+00 3.205854e+01 
3.891920e+00 3.151374e+01 
3.926650e+00 3.098333e+01 
3.961970e+00 3.045696e+01 
3.997360e+00 2.994264e+01 
4.031670e+00 2.945569e+01 
4.066330e+00 2.897533e+01 
4.101420e+00 2.850017e+01 
4.136200e+00 2.804032e+01 
4.170810e+00 2.759298e+01 
4.206250e+00 2.714551e+01 
4.241580e+00 2.670953e+01 
4.276300e+00 2.629041e+01 
4.310970e+00 2.588091e+01 
4.346120e+00 2.547516e+01 
4.380600e+00 2.508633e+01 
4.414730e+00 2.470955e+01 
4.450350e+00 2.432443e+01 
4.485320e+00 2.395442e+01 
4.519810e+00 2.359781e+01 
4.555430e+00 2.323752e+01 
4.590870e+00 2.288688e+01 
4.625480e+00 2.255208e+01 
4.659910e+00 2.222574e+01 
4.695230e+00 2.189779e+01 
4.729960e+00 2.158183e+01 
4.764450e+00 2.127429e+01 
4.799530e+00 2.096774e+01 
4.834910e+00 2.066471e+01 
4.869700e+00 2.037406e+01 
4.904370e+00 2.009025e+01 
4.939450e+00 1.980865e+01 
4.973940e+00 1.953716e+01 
5.008430e+00 1.927079e+01 
5.043810e+00 1.900285e+01 
5.078840e+00 1.874267e+01 
5.113500e+00 1.849004e+01 
5.148890e+00 1.823835e+01 
5.184210e+00 1.799191e+01 
5.219060e+00 1.775311e+01 
5.253660e+00 1.751999e+01 
5.288570e+00 1.728903e+01 
5.323420e+00 1.706330e+01 
5.358440e+00 1.684130e+01 
5.393590e+00 1.662244e+01 
5.428310e+00 1.641023e+01 
5.462800e+00 1.620318e+01 
5.497640e+00 1.599764e+01 
5.532670e+00 1.579559e+01 
5.567280e+00 1.559971e+01 
5.602000e+00 1.540655e+01 
5.637270e+00 1.521339e+01 
5.672410e+00 1.502417e+01 
5.707020e+00 1.484093e+01 
5.742040e+00 1.465968e+01 
5.777430e+00 1.447980e+01 
5.812210e+00 1.430596e+01 
5.846820e+00 1.413590e+01 
5.881610e+00 1.396777e+01 
5.916510e+00 1.380184e+01 
5.951600e+00 1.363824e+01 
5.986560e+00 1.347811e+01 
6.021830e+00 1.331915e+01 
6.056490e+00 1.316577e+01 
6.091160e+00 1.301502e+01 
6.125830e+00 1.286663e+01 
6.161090e+00 1.271813e+01 
6.195760e+00 1.257451e+01 
6.230420e+00 1.243313e+01 
6.265690e+00 1.229151e+01 
6.300950e+00 1.215277e+01 
6.335620e+00 1.201844e+01 
6.370880e+00 1.188388e+01 
6.405550e+00 1.175393e+01 
6.440220e+00 1.162605e+01 
6.475480e+00 1.149793e+01 
6.510150e+00 1.137400e+01 
6.544810e+00 1.125232e+01 
6.580080e+00 1.113032e+01 
6.614750e+00 1.101214e+01 
6.649410e+00 1.089585e+01 
6.684080e+00 1.078123e+01 
6.719340e+00 1.066633e+01 
6.754010e+00 1.055512e+01 
6.788680e+00 1.044581e+01 
6.823940e+00 1.033621e+01 
6.859800e+00 1.022636e+01 
6.894470e+00 1.012198e+01 
6.929140e+00 1.001916e+01 
6.963800e+00 9.917795e+00 
6.999070e+00 9.816082e+00 
7.033730e+00 9.717687e+00 
7.068400e+00 9.620601e+00 
7.103660e+00 9.523211e+00 
7.138330e+00 9.428967e+00 
7.173600e+00 9.334838e+00 
7.208260e+00 9.243578e+00 
7.243530e+00 9.151954e+00 
7.277600e+00 9.064566e+00 
7.312860e+00 8.975270e+00 
7.348120e+00 8.887162e+00 
7.382790e+00 8.801669e+00 
7.417460e+00 8.717688e+00 
7.452720e+00 8.633597e+00 
7.487390e+00 8.551985e+00 
7.522650e+00 8.470054e+00 
7.557320e+00 8.390636e+00 
7.591990e+00 8.312264e+00 
7.627250e+00 8.233574e+00 
7.662510e+00 8.155890e+00 
7.697180e+00 8.080715e+00 
7.731850e+00 8.006570e+00 
7.766510e+00 7.933366e+00 
7.801180e+00 7.861045e+00 
7.836440e+00 7.788475e+00 
7.871110e+00 7.718044e+00 
7.906380e+00 7.647275e+00 
7.941040e+00 7.578583e+00 
7.976310e+00 7.509679e+00 
8.011570e+00 7.441811e+00 
8.046240e+00 7.375885e+00 
8.080900e+00 7.310766e+00 
8.115570e+00 7.246451e+00 
8.150830e+00 7.182007e+00 
8.185500e+00 7.119394e+00 
8.220770e+00 7.056453e+00 
8.255430e+00 6.995331e+00 
8.290100e+00 6.935071e+00 
8.324770e+00 6.875530e+00 
8.359430e+00 6.816695e+00 
8.394700e+00 6.757520e+00 
8.429960e+00 6.699153e+00 
8.464630e+00 6.642526e+00 
8.499890e+00 6.585595e+00 
8.534560e+00 6.530258e+00 
8.569200e+00 6.475593e+00 
