# Parameters:
# omega_b = 0.022500, omega_m = 0.137500, n_s = 0.950000, h = 69.033203, w = -1.000000,sigma_8 = 0.755000
# z = 0.760000
#
# k[1/Mpc] # P(k):
8.694000e-04 7.277652e+03 
2.077466e-03 1.532967e+04 
3.285532e-03 2.151406e+04 
4.493598e-03 2.619619e+04 
5.701664e-03 2.961724e+04 
6.909730e-03 3.199399e+04 
8.117797e-03 3.356095e+04 
9.325863e-03 3.444042e+04 
1.053393e-02 3.475231e+04 
1.174199e-02 3.460696e+04 
1.295006e-02 3.407456e+04 
1.415813e-02 3.324822e+04 
1.536619e-02 3.220629e+04 
1.657426e-02 3.100326e+04 
1.778233e-02 2.968747e+04 
1.899039e-02 2.832971e+04 
2.019846e-02 2.696762e+04 
2.140652e-02 2.563466e+04 
2.261459e-02 2.434758e+04 
2.382266e-02 2.312844e+04 
2.503072e-02 2.199191e+04 
2.623879e-02 2.094311e+04 
2.744685e-02 1.998347e+04 
2.865492e-02 1.911390e+04 
2.986299e-02 1.832997e+04 
3.100100e-02 1.766794e+04 
3.220400e-02 1.704152e+04 
3.288100e-02 1.672154e+04 
3.424300e-02 1.613922e+04 
3.555100e-02 1.564604e+04 
3.686000e-02 1.520875e+04 
3.795000e-02 1.487908e+04 
3.929100e-02 1.451007e+04 
4.039800e-02 1.422644e+04 
4.164000e-02 1.392382e+04 
4.294400e-02 1.361316e+04 
4.415000e-02 1.333023e+04 
4.542900e-02 1.302221e+04 
4.660900e-02 1.273459e+04 
4.782300e-02 1.242070e+04 
4.892900e-02 1.212737e+04 
5.031200e-02 1.174592e+04 
5.155900e-02 1.138717e+04 
5.238100e-02 1.114546e+04 
5.378200e-02 1.072716e+04 
5.513400e-02 1.031766e+04 
5.627600e-02 9.971531e+03 
5.735300e-02 9.648953e+03 
5.870100e-02 9.254293e+03 
5.988700e-02 8.919616e+03 
6.113500e-02 8.582493e+03 
6.225900e-02 8.294447e+03 
6.340100e-02 8.018925e+03 
6.480200e-02 7.704609e+03 
6.601100e-02 7.456888e+03 
6.725500e-02 7.224242e+03 
6.829100e-02 7.049213e+03 
6.958600e-02 6.849556e+03 
7.071100e-02 6.694669e+03 
7.192300e-02 6.544452e+03 
7.307400e-02 6.416346e+03 
7.412300e-02 6.310474e+03 
7.550400e-02 6.185831e+03 
7.663100e-02 6.093018e+03 
7.791200e-02 5.997159e+03 
7.912700e-02 5.912211e+03 
8.027600e-02 5.835043e+03 
8.138400e-02 5.762242e+03 
8.272200e-02 5.674804e+03 
8.406100e-02 5.586261e+03 
8.534100e-02 5.498006e+03 
8.653800e-02 5.411320e+03 
8.759800e-02 5.332138e+03 
8.900300e-02 5.222823e+03 
9.009000e-02 5.134246e+03 
9.113300e-02 5.045649e+03 
9.239600e-02 4.936589e+03 
9.358000e-02 4.831745e+03 
9.496100e-02 4.706382e+03 
9.608400e-02 4.604479e+03 
9.727500e-02 4.497273e+03 
9.852600e-02 4.384494e+03 
9.973800e-02 4.278184e+03 
1.009000e-01 4.178978e+03 
1.020900e-01 4.081262e+03 
1.034000e-01 3.978415e+03 
1.046000e-01 3.888599e+03 
1.057200e-01 3.810712e+03 
1.069100e-01 3.731812e+03 
1.082500e-01 3.650334e+03 
1.093900e-01 3.586316e+03 
1.105400e-01 3.525335e+03 
1.116900e-01 3.470665e+03 
1.129600e-01 3.413494e+03 
1.142000e-01 3.363185e+03 
1.153300e-01 3.319899e+03 
1.166400e-01 3.273175e+03 
1.177800e-01 3.234919e+03 
1.190000e-01 3.195613e+03 
1.201200e-01 3.160762e+03 
1.213400e-01 3.123763e+03 
1.227100e-01 3.082232e+03 
1.238900e-01 3.046912e+03 
1.250700e-01 3.010856e+03 
1.263200e-01 2.972725e+03 
1.275500e-01 2.934240e+03 
1.287500e-01 2.896468e+03 
1.299900e-01 2.856604e+03 
1.311300e-01 2.819712e+03 
1.323500e-01 2.779504e+03 
1.335900e-01 2.738628e+03 
1.347100e-01 2.701269e+03 
1.359800e-01 2.659246e+03 
1.372100e-01 2.618277e+03 
1.384300e-01 2.578255e+03 
1.395700e-01 2.540922e+03 
1.407700e-01 2.502438e+03 
1.420300e-01 2.462528e+03 
1.432800e-01 2.423847e+03 
1.444500e-01 2.388600e+03 
1.456300e-01 2.353806e+03 
1.468900e-01 2.318135e+03 
1.480500e-01 2.286196e+03 
1.491700e-01 2.256481e+03 
1.503800e-01 2.225672e+03 
1.516400e-01 2.194532e+03 
1.528200e-01 2.167144e+03 
1.540200e-01 2.139839e+03 
1.551900e-01 2.114856e+03 
1.564300e-01 2.089163e+03 
1.576600e-01 2.064699e+03 
1.588700e-01 2.041722e+03 
1.600900e-01 2.019030e+03 
1.612700e-01 1.998196e+03 
1.625400e-01 1.976190e+03 
1.637600e-01 1.955592e+03 
1.649500e-01 1.935947e+03 
1.662200e-01 1.915329e+03 
1.674000e-01 1.896327e+03 
1.685000e-01 1.878910e+03 
1.697500e-01 1.859159e+03 
1.710300e-01 1.839007e+03 
1.722200e-01 1.820606e+03 
1.734400e-01 1.801301e+03 
1.746400e-01 1.782609e+03 
1.758700e-01 1.763543e+03 
1.770900e-01 1.744477e+03 
1.782700e-01 1.726349e+03 
1.794600e-01 1.708041e+03 
1.807000e-01 1.689067e+03 
1.819100e-01 1.670869e+03 
1.830100e-01 1.654360e+03 
1.842200e-01 1.636450e+03 
1.855000e-01 1.617828e+03 
1.867000e-01 1.600644e+03 
1.879200e-01 1.583460e+03 
1.890900e-01 1.567279e+03 
1.902800e-01 1.551247e+03 
1.915200e-01 1.534812e+03 
1.926900e-01 1.519628e+03 
1.939000e-01 1.504417e+03 
1.951700e-01 1.488709e+03 
1.963100e-01 1.474921e+03 
1.975100e-01 1.460873e+03 
1.987800e-01 1.446239e+03 
2.000100e-01 1.432383e+03 
2.012500e-01 1.418849e+03 
2.023400e-01 1.407124e+03 
2.036100e-01 1.393708e+03 
2.048900e-01 1.380580e+03 
2.060400e-01 1.368959e+03 
2.072200e-01 1.357211e+03 
2.084200e-01 1.345547e+03 
2.096900e-01 1.333384e+03 
2.109200e-01 1.321778e+03 
2.121100e-01 1.310719e+03 
2.132700e-01 1.300088e+03 
2.145200e-01 1.288792e+03 
2.157200e-01 1.278083e+03 
2.168800e-01 1.267864e+03 
2.180700e-01 1.257520e+03 
2.193400e-01 1.246608e+03 
2.206000e-01 1.235885e+03 
2.217500e-01 1.226231e+03 
2.229500e-01 1.216289e+03 
2.241400e-01 1.206497e+03 
2.253500e-01 1.196672e+03 
2.264900e-01 1.187536e+03 
2.277100e-01 1.177860e+03 
2.289900e-01 1.167820e+03 
2.301500e-01 1.158842e+03 
2.313600e-01 1.149597e+03 
2.325600e-01 1.140528e+03 
2.337700e-01 1.131501e+03 
2.350000e-01 1.122445e+03 
2.362000e-01 1.113726e+03 
2.374100e-01 1.105050e+03 
2.386500e-01 1.096273e+03 
2.399100e-01 1.087471e+03 
2.410400e-01 1.079706e+03 
2.422500e-01 1.071496e+03 
2.435000e-01 1.063122e+03 
2.447300e-01 1.054996e+03 
2.458700e-01 1.047594e+03 
2.470600e-01 1.039957e+03 
2.483300e-01 1.031909e+03 
2.495600e-01 1.024235e+03 
2.507600e-01 1.016870e+03 
2.519600e-01 1.009593e+03 
2.532200e-01 1.002045e+03 
2.543700e-01 9.952703e+02 
2.555500e-01 9.884199e+02 
2.568000e-01 9.812487e+02 
2.580100e-01 9.743895e+02 
2.592400e-01 9.675334e+02 
2.604100e-01 9.611019e+02 
2.616100e-01 9.545799e+02 
2.628400e-01 9.479718e+02 
2.640600e-01 9.415218e+02 
2.652200e-01 9.354688e+02 
2.664300e-01 9.292249e+02 
2.676500e-01 9.230004e+02 
2.688400e-01 9.170163e+02 
2.700700e-01 9.109122e+02 
2.712400e-01 9.051697e+02 
2.724800e-01 8.991505e+02 
2.736700e-01 8.934461e+02 
2.748800e-01 8.877172e+02 
2.761000e-01 8.820042e+02 
2.773200e-01 8.763536e+02 
2.785400e-01 8.707681e+02 
2.797000e-01 8.655211e+02 
2.808900e-01 8.601943e+02 
2.821400e-01 8.546590e+02 
2.833900e-01 8.491844e+02 
2.845500e-01 8.441596e+02 
2.857800e-01 8.388868e+02 
2.870300e-01 8.335857e+02 
2.882100e-01 8.286339e+02 
2.893900e-01 8.237358e+02 
2.906300e-01 8.186437e+02 
2.918900e-01 8.135245e+02 
2.930500e-01 8.088599e+02 
2.942500e-01 8.040819e+02 
2.954200e-01 7.994677e+02 
2.966500e-01 7.946656e+02 
2.978900e-01 7.898742e+02 
2.990400e-01 7.854747e+02 
3.002700e-01 7.808175e+02 
3.015100e-01 7.761710e+02 
3.026800e-01 7.718301e+02 
3.038500e-01 7.675308e+02 
3.050300e-01 7.632362e+02 
3.062600e-01 7.588059e+02 
3.075000e-01 7.543841e+02 
3.087000e-01 7.501469e+02 
3.099100e-01 7.459157e+02 
3.111200e-01 7.417283e+02 
3.123100e-01 7.376545e+02 
3.135300e-01 7.335178e+02 
3.147300e-01 7.294878e+02 
3.159900e-01 7.252971e+02 
3.171800e-01 7.213816e+02 
3.183700e-01 7.175053e+02 
3.196300e-01 7.134400e+02 
3.208400e-01 7.095732e+02 
3.220300e-01 7.058055e+02 
3.232000e-01 7.021445e+02 
3.244300e-01 6.983347e+02 
3.256700e-01 6.945301e+02 
3.269200e-01 6.907310e+02 
3.280800e-01 6.872376e+02 
3.292500e-01 6.837555e+02 
3.304800e-01 6.801310e+02 
3.317100e-01 6.765399e+02 
3.328900e-01 6.731256e+02 
3.340700e-01 6.697411e+02 
3.353600e-01 6.660878e+02 
3.365300e-01 6.628092e+02 
3.377100e-01 6.595310e+02 
3.389200e-01 6.561988e+02 
3.401600e-01 6.528144e+02 
3.413700e-01 6.495516e+02 
3.425300e-01 6.464577e+02 
3.437700e-01 6.431789e+02 
3.449800e-01 6.400075e+02 
3.461800e-01 6.368894e+02 
3.473600e-01 6.338550e+02 
3.485800e-01 6.307587e+02 
3.498100e-01 6.276640e+02 
3.510200e-01 6.246457e+02 
3.522000e-01 6.217270e+02 
3.533900e-01 6.188078e+02 
3.546400e-01 6.157840e+02 
3.558400e-01 6.129068e+02 
3.570600e-01 6.100060e+02 
3.582700e-01 6.071531e+02 
3.595000e-01 6.042774e+02 
3.607100e-01 6.014812e+02 
3.618900e-01 5.987838e+02 
3.631200e-01 5.959951e+02 
3.643200e-01 5.932968e+02 
3.655500e-01 5.905536e+02 
3.667300e-01 5.879433e+02 
3.679500e-01 5.852817e+02 
3.691900e-01 5.825987e+02 
3.703600e-01 5.800874e+02 
3.715700e-01 5.775108e+02 
3.727700e-01 5.749758e+02 
3.739900e-01 5.724252e+02 
3.752000e-01 5.699270e+02 
3.763900e-01 5.674894e+02 
3.775800e-01 5.650707e+02 
3.788200e-01 5.625702e+02 
3.800300e-01 5.601496e+02 
3.812100e-01 5.578128e+02 
3.824200e-01 5.554389e+02 
3.836100e-01 5.531221e+02 
3.848600e-01 5.507075e+02 
3.860400e-01 5.484458e+02 
3.872400e-01 5.461631e+02 
3.884600e-01 5.438698e+02 
3.896500e-01 5.416536e+02 
3.908700e-01 5.393988e+02 
3.920600e-01 5.372160e+02 
3.933100e-01 5.349406e+02 
3.945300e-01 5.327369e+02 
3.957200e-01 5.306109e+02 
3.969300e-01 5.284672e+02 
3.981700e-01 5.262871e+02 
3.993500e-01 5.242278e+02 
4.094840e-01 5.071519e+02 
4.272360e-01 4.797932e+02 
4.454600e-01 4.544982e+02 
4.630560e-01 4.323680e+02 
4.804610e-01 4.123895e+02 
4.980690e-01 3.938658e+02 
5.159230e-01 3.766219e+02 
5.317440e-01 3.624965e+02 
5.489640e-01 3.482488e+02 
5.671990e-01 3.343325e+02 
5.838690e-01 3.225458e+02 
6.018840e-01 3.107356e+02 
6.202330e-01 2.996127e+02 
6.379250e-01 2.896412e+02 
6.545410e-01 2.809315e+02 
6.714560e-01 2.726153e+02 
6.892080e-01 2.644623e+02 
7.066010e-01 2.569793e+02 
7.240540e-01 2.499167e+02 
7.420450e-01 2.430855e+02 
7.593780e-01 2.368802e+02 
7.764720e-01 2.310854e+02 
7.942840e-01 2.253683e+02 
8.116170e-01 2.200900e+02 
8.288310e-01 2.151034e+02 
8.462240e-01 2.102966e+02 
8.631980e-01 2.058124e+02 
8.810700e-01 2.012960e+02 
8.989410e-01 1.969743e+02 
9.166330e-01 1.928686e+02 
9.345640e-01 1.888712e+02 
9.515980e-01 1.852140e+02 
9.688720e-01 1.816360e+02 
9.865640e-01 1.780967e+02 
1.031870e+00 1.695716e+02 
1.063490e+00 1.640090e+02 
1.097920e+00 1.583142e+02 
1.134370e+00 1.525987e+02 
1.167730e+00 1.476572e+02 
1.203830e+00 1.425719e+02 
1.240470e+00 1.376903e+02 
1.275790e+00 1.331967e+02 
1.309140e+00 1.291653e+02 
1.342970e+00 1.252303e+02 
1.378420e+00 1.213091e+02 
1.413200e+00 1.176257e+02 
1.448110e+00 1.140767e+02 
1.484090e+00 1.105902e+02 
1.518820e+00 1.073524e+02 
1.552880e+00 1.043114e+02 
1.588630e+00 1.012396e+02 
1.623230e+00 9.839506e+01 
1.657720e+00 9.566768e+01 
1.692450e+00 9.303999e+01 
1.726400e+00 9.054789e+01 
1.762200e+00 8.801915e+01 
1.797880e+00 8.560383e+01 
1.833270e+00 8.329004e+01 
1.869070e+00 8.104474e+01 
1.903200e+00 7.898048e+01 
1.937740e+00 7.696382e+01 
1.973190e+00 7.496555e+01 
2.007440e+00 7.310489e+01 
2.042160e+00 7.128813e+01 
2.077900e+00 6.947378e+01 
2.112390e+00 6.779141e+01 
2.146220e+00 6.618330e+01 
2.181600e+00 6.456450e+01 
2.216930e+00 6.300305e+01 
2.250760e+00 6.155114e+01 
2.286500e+00 6.006563e+01 
2.321770e+00 5.865400e+01 
2.355950e+00 5.733446e+01 
2.391280e+00 5.600431e+01 
2.426240e+00 5.472880e+01 
2.460670e+00 5.351150e+01 
2.495640e+00 5.231361e+01 
2.531080e+00 5.114063e+01 
2.566220e+00 5.000789e+01 
2.600830e+00 4.892689e+01 
2.635080e+00 4.789204e+01 
2.670340e+00 4.685013e+01 
2.705970e+00 4.583233e+01 
2.740040e+00 4.488951e+01 
2.774520e+00 4.396074e+01 
2.809730e+00 4.303892e+01 
2.844390e+00 4.215764e+01 
2.879960e+00 4.127788e+01 
2.914860e+00 4.043851e+01 
2.949410e+00 3.963094e+01 
2.984440e+00 3.883337e+01 
3.019760e+00 3.805368e+01 
3.054730e+00 3.730450e+01 
3.089030e+00 3.658418e+01 
3.124060e+00 3.586997e+01 
3.159560e+00 3.516751e+01 
3.194710e+00 3.448708e+01 
3.229010e+00 3.384032e+01 
3.263320e+00 3.321165e+01 
3.297930e+00 3.259401e+01 
3.332830e+00 3.198656e+01 
3.368040e+00 3.138915e+01 
3.403300e+00 3.080621e+01 
3.438450e+00 3.023906e+01 
3.473060e+00 2.969498e+01 
3.508440e+00 2.915427e+01 
3.543110e+00 2.863761e+01 
3.577470e+00 2.813516e+01 
3.613040e+00 2.762851e+01 
3.648120e+00 2.714219e+01 
3.682910e+00 2.667156e+01 
3.718050e+00 2.620719e+01 
3.753320e+00 2.575221e+01 
3.787980e+00 2.531534e+01 
3.822290e+00 2.489365e+01 
3.857020e+00 2.447753e+01 
3.891920e+00 2.406826e+01 
3.926650e+00 2.366865e+01 
3.961970e+00 2.327217e+01 
3.997360e+00 2.288507e+01 
4.031670e+00 2.251833e+01 
4.066330e+00 2.215563e+01 
4.101420e+00 2.179682e+01 
4.136200e+00 2.144995e+01 
4.170810e+00 2.111247e+01 
4.206250e+00 2.077400e+01 
4.241580e+00 2.044402e+01 
4.276300e+00 2.012691e+01 
4.310970e+00 1.981714e+01 
4.346120e+00 1.950994e+01 
4.380600e+00 1.921515e+01 
4.414730e+00 1.892948e+01 
4.450350e+00 1.863764e+01 
4.485320e+00 1.835722e+01 
4.519810e+00 1.808652e+01 
4.555430e+00 1.781284e+01 
4.590870e+00 1.754633e+01 
4.625480e+00 1.729158e+01 
4.659910e+00 1.704324e+01 
4.695230e+00 1.679383e+01 
4.729960e+00 1.655355e+01 
4.764450e+00 1.631975e+01 
4.799530e+00 1.608684e+01 
4.834910e+00 1.585659e+01 
4.869700e+00 1.563490e+01 
4.904370e+00 1.541829e+01 
4.939450e+00 1.520343e+01 
4.973940e+00 1.499648e+01 
5.008430e+00 1.479341e+01 
5.043810e+00 1.458929e+01 
5.078840e+00 1.439117e+01 
5.113500e+00 1.419878e+01 
5.148890e+00 1.400634e+01 
5.184210e+00 1.381788e+01 
5.219060e+00 1.363545e+01 
5.253660e+00 1.345791e+01 
5.288570e+00 1.328201e+01 
5.323420e+00 1.310976e+01 
5.358440e+00 1.293998e+01 
5.393590e+00 1.277261e+01 
5.428310e+00 1.261049e+01 
5.462800e+00 1.245238e+01 
5.497640e+00 1.229543e+01 
5.532670e+00 1.214070e+01 
5.567280e+00 1.199054e+01 
5.602000e+00 1.184247e+01 
5.637270e+00 1.169494e+01 
5.672410e+00 1.155054e+01 
5.707020e+00 1.141070e+01 
5.742040e+00 1.127194e+01 
5.777430e+00 1.113413e+01 
5.812210e+00 1.100094e+01 
5.846820e+00 1.087084e+01 
5.881610e+00 1.074225e+01 
5.916510e+00 1.061534e+01 
5.951600e+00 1.049015e+01 
5.986560e+00 1.036758e+01 
6.021830e+00 1.024590e+01 
6.056490e+00 1.012844e+01 
6.091160e+00 1.001297e+01 
6.125830e+00 9.899294e+00 
6.161090e+00 9.785606e+00 
6.195760e+00 9.675805e+00 
6.230420e+00 9.567718e+00 
6.265690e+00 9.459434e+00 
6.300950e+00 9.353277e+00 
6.335620e+00 9.250482e+00 
6.370880e+00 9.147518e+00 
6.405550e+00 9.048032e+00 
6.440220e+00 8.950116e+00 
6.475480e+00 8.852015e+00 
6.510150e+00 8.757098e+00 
6.544810e+00 8.663852e+00 
6.580080e+00 8.570354e+00 
6.614750e+00 8.479786e+00 
6.649410e+00 8.390838e+00 
6.684080e+00 8.303194e+00 
6.719340e+00 8.215338e+00 
6.754010e+00 8.130279e+00 
6.788680e+00 8.046639e+00 
6.823940e+00 7.962777e+00 
6.859800e+00 7.878708e+00 
6.894470e+00 7.798797e+00 
6.929140e+00 7.720069e+00 
6.963800e+00 7.642445e+00 
6.999070e+00 7.564565e+00 
7.033730e+00 7.489378e+00 
7.068400e+00 7.415188e+00 
7.103660e+00 7.340761e+00 
7.138330e+00 7.268661e+00 
7.173600e+00 7.196493e+00 
7.208260e+00 7.126523e+00 
7.243530e+00 7.056270e+00 
7.277600e+00 6.989445e+00 
7.312860e+00 6.921323e+00 
7.348120e+00 6.854103e+00 
7.382790e+00 6.788874e+00 
7.417460e+00 6.724656e+00 
7.452720e+00 6.660280e+00 
7.487390e+00 6.597798e+00 
7.522650e+00 6.535070e+00 
7.557320e+00 6.474360e+00 
7.591990e+00 6.414482e+00 
7.627250e+00 6.354357e+00 
7.662510e+00 6.294997e+00 
7.697180e+00 6.237535e+00 
7.731850e+00 6.180851e+00 
7.766510e+00 6.124883e+00 
7.801180e+00 6.069587e+00 
7.836440e+00 6.014177e+00 
7.871110e+00 5.960446e+00 
7.906380e+00 5.906455e+00 
7.941040e+00 5.854043e+00 
7.976310e+00 5.801446e+00 
8.011570e+00 5.749610e+00 
8.046240e+00 5.699255e+00 
8.080900e+00 5.649513e+00 
8.115570e+00 5.600392e+00 
8.150830e+00 5.551207e+00 
8.185500e+00 5.503417e+00 
8.220770e+00 5.455373e+00 
8.255430e+00 5.408713e+00 
8.290100e+00 5.362729e+00 
8.324770e+00 5.317293e+00 
8.359430e+00 5.272391e+00 
8.394700e+00 5.227227e+00 
8.429960e+00 5.182692e+00 
8.464630e+00 5.139497e+00 
8.499890e+00 5.096068e+00 
8.534560e+00 5.053851e+00 
8.569200e+00 5.012143e+00 
