# Parameters:
# omega_b = 0.022500, omega_m = 0.137500, n_s = 0.950000, h = 74.091797, w = -1.150000,sigma_8 = 0.755000
# z = 0.500000
#
# k[1/Mpc] # P(k):
8.694000e-04 8.485250e+03 
2.077466e-03 1.805474e+04 
3.285532e-03 2.539174e+04 
4.493598e-03 3.094527e+04 
5.701664e-03 3.499751e+04 
6.909730e-03 3.781061e+04 
8.117797e-03 3.966662e+04 
9.325863e-03 4.071145e+04 
1.053393e-02 4.108717e+04 
1.174199e-02 4.092265e+04 
1.295006e-02 4.030037e+04 
1.415813e-02 3.933060e+04 
1.536619e-02 3.810486e+04 
1.657426e-02 3.668554e+04 
1.778233e-02 3.512378e+04 
1.899039e-02 3.350402e+04 
2.019846e-02 3.188328e+04 
2.140652e-02 3.030353e+04 
2.261459e-02 2.878112e+04 
2.382266e-02 2.733941e+04 
2.503072e-02 2.599534e+04 
2.623879e-02 2.475504e+04 
2.744685e-02 2.362021e+04 
2.865492e-02 2.259168e+04 
2.986299e-02 2.166463e+04 
3.100100e-02 2.088134e+04 
3.220400e-02 2.014039e+04 
3.288100e-02 1.976138e+04 
3.424300e-02 1.907165e+04 
3.555100e-02 1.848720e+04 
3.686000e-02 1.796854e+04 
3.795000e-02 1.757728e+04 
3.929100e-02 1.713928e+04 
4.039800e-02 1.680242e+04 
4.164000e-02 1.644331e+04 
4.294400e-02 1.607506e+04 
4.415000e-02 1.573985e+04 
4.542900e-02 1.537593e+04 
4.660900e-02 1.503646e+04 
4.782300e-02 1.466696e+04 
4.892900e-02 1.432197e+04 
5.031200e-02 1.387371e+04 
5.155900e-02 1.345268e+04 
5.238100e-02 1.316908e+04 
5.378200e-02 1.267864e+04 
5.513400e-02 1.219875e+04 
5.627600e-02 1.179296e+04 
5.735300e-02 1.141472e+04 
5.870100e-02 1.095187e+04 
5.988700e-02 1.055919e+04 
6.113500e-02 1.016345e+04 
6.225900e-02 9.825155e+03 
6.340100e-02 9.501332e+03 
6.480200e-02 9.131660e+03 
6.601100e-02 8.840097e+03 
6.725500e-02 8.566080e+03 
6.829100e-02 8.359610e+03 
6.958600e-02 8.123869e+03 
7.071100e-02 7.940738e+03 
7.192300e-02 7.762927e+03 
7.307400e-02 7.611023e+03 
7.412300e-02 7.485289e+03 
7.550400e-02 7.337069e+03 
7.663100e-02 7.226502e+03 
7.791200e-02 7.112091e+03 
7.912700e-02 7.010591e+03 
8.027600e-02 6.918238e+03 
8.138400e-02 6.831143e+03 
8.272200e-02 6.726746e+03 
8.406100e-02 6.621268e+03 
8.534100e-02 6.516294e+03 
8.653800e-02 6.413587e+03 
8.759800e-02 6.319995e+03 
8.900300e-02 6.191140e+03 
9.009000e-02 6.087046e+03 
9.113300e-02 5.983234e+03 
9.239600e-02 5.855673e+03 
9.358000e-02 5.733290e+03 
9.496100e-02 5.587231e+03 
9.608400e-02 5.468646e+03 
9.727500e-02 5.343989e+03 
9.852600e-02 5.212961e+03 
9.973800e-02 5.089485e+03 
1.009000e-01 4.974285e+03 
1.020900e-01 4.860779e+03 
1.034000e-01 4.741214e+03 
1.046000e-01 4.636696e+03 
1.057200e-01 4.545899e+03 
1.069100e-01 4.453823e+03 
1.082500e-01 4.358457e+03 
1.093900e-01 4.283348e+03 
1.105400e-01 4.211692e+03 
1.116900e-01 4.147135e+03 
1.129600e-01 4.079519e+03 
1.142000e-01 4.019781e+03 
1.153300e-01 3.968246e+03 
1.166400e-01 3.912402e+03 
1.177800e-01 3.866597e+03 
1.190000e-01 3.819495e+03 
1.201200e-01 3.777669e+03 
1.213400e-01 3.733252e+03 
1.227100e-01 3.683498e+03 
1.238900e-01 3.641232e+03 
1.250700e-01 3.598247e+03 
1.263200e-01 3.552879e+03 
1.275500e-01 3.507289e+03 
1.287500e-01 3.462638e+03 
1.299900e-01 3.415660e+03 
1.311300e-01 3.372284e+03 
1.323500e-01 3.325155e+03 
1.335900e-01 3.277344e+03 
1.347100e-01 3.233777e+03 
1.359800e-01 3.184828e+03 
1.372100e-01 3.137225e+03 
1.384300e-01 3.090747e+03 
1.395700e-01 3.047467e+03 
1.407700e-01 3.002843e+03 
1.420300e-01 2.956578e+03 
1.432800e-01 2.911723e+03 
1.444500e-01 2.870903e+03 
1.456300e-01 2.830596e+03 
1.468900e-01 2.789163e+03 
1.480500e-01 2.752026e+03 
1.491700e-01 2.717410e+03 
1.503800e-01 2.681439e+03 
1.516400e-01 2.645043e+03 
1.528200e-01 2.612889e+03 
1.540200e-01 2.580828e+03 
1.551900e-01 2.551345e+03 
1.564300e-01 2.520985e+03 
1.576600e-01 2.491998e+03 
1.588700e-01 2.464677e+03 
1.600900e-01 2.437688e+03 
1.612700e-01 2.412814e+03 
1.625400e-01 2.386540e+03 
1.637600e-01 2.361929e+03 
1.649500e-01 2.338445e+03 
1.662200e-01 2.313808e+03 
1.674000e-01 2.291152e+03 
1.685000e-01 2.270384e+03 
1.697500e-01 2.246881e+03 
1.710300e-01 2.222948e+03 
1.722200e-01 2.201092e+03 
1.734400e-01 2.178308e+03 
1.746400e-01 2.156252e+03 
1.758700e-01 2.133790e+03 
1.770900e-01 2.111398e+03 
1.782700e-01 2.090106e+03 
1.794600e-01 2.068653e+03 
1.807000e-01 2.046452e+03 
1.819100e-01 2.025155e+03 
1.830100e-01 2.005872e+03 
1.842200e-01 1.984956e+03 
1.855000e-01 1.963206e+03 
1.867000e-01 1.943137e+03 
1.879200e-01 1.923065e+03 
1.890900e-01 1.904157e+03 
1.902800e-01 1.885395e+03 
1.915200e-01 1.866158e+03 
1.926900e-01 1.848368e+03 
1.939000e-01 1.830497e+03 
1.951700e-01 1.812039e+03 
1.963100e-01 1.795825e+03 
1.975100e-01 1.779273e+03 
1.987800e-01 1.762027e+03 
2.000100e-01 1.745681e+03 
2.012500e-01 1.729673e+03 
2.023400e-01 1.715804e+03 
2.036100e-01 1.699926e+03 
2.048900e-01 1.684360e+03 
2.060400e-01 1.670580e+03 
2.072200e-01 1.656647e+03 
2.084200e-01 1.642789e+03 
2.096900e-01 1.628338e+03 
2.109200e-01 1.614547e+03 
2.121100e-01 1.601411e+03 
2.132700e-01 1.588782e+03 
2.145200e-01 1.575363e+03 
2.157200e-01 1.562639e+03 
2.168800e-01 1.550494e+03 
2.180700e-01 1.538202e+03 
2.193400e-01 1.525241e+03 
2.206000e-01 1.512520e+03 
2.217500e-01 1.501065e+03 
2.229500e-01 1.489269e+03 
2.241400e-01 1.477663e+03 
2.253500e-01 1.466016e+03 
2.264900e-01 1.455184e+03 
2.277100e-01 1.443712e+03 
2.289900e-01 1.431806e+03 
2.301500e-01 1.421158e+03 
2.313600e-01 1.410193e+03 
2.325600e-01 1.399431e+03 
2.337700e-01 1.388719e+03 
2.350000e-01 1.377971e+03 
2.362000e-01 1.367621e+03 
2.374100e-01 1.357318e+03 
2.386500e-01 1.346895e+03 
2.399100e-01 1.336441e+03 
2.410400e-01 1.327209e+03 
2.422500e-01 1.317445e+03 
2.435000e-01 1.307485e+03 
2.447300e-01 1.297818e+03 
2.458700e-01 1.289001e+03 
2.470600e-01 1.279906e+03 
2.483300e-01 1.270319e+03 
2.495600e-01 1.261180e+03 
2.507600e-01 1.252414e+03 
2.519600e-01 1.243751e+03 
2.532200e-01 1.234764e+03 
2.543700e-01 1.226698e+03 
2.555500e-01 1.218543e+03 
2.568000e-01 1.210005e+03 
2.580100e-01 1.201838e+03 
2.592400e-01 1.193679e+03 
2.604100e-01 1.186028e+03 
2.616100e-01 1.178269e+03 
2.628400e-01 1.170407e+03 
2.640600e-01 1.162740e+03 
2.652200e-01 1.155548e+03 
2.664300e-01 1.148129e+03 
2.676500e-01 1.140732e+03 
2.688400e-01 1.133624e+03 
2.700700e-01 1.126376e+03 
2.712400e-01 1.119557e+03 
2.724800e-01 1.112409e+03 
2.736700e-01 1.105631e+03 
2.748800e-01 1.098821e+03 
2.761000e-01 1.092029e+03 
2.773200e-01 1.085311e+03 
2.785400e-01 1.078669e+03 
2.797000e-01 1.072428e+03 
2.808900e-01 1.066092e+03 
2.821400e-01 1.059507e+03 
2.833900e-01 1.052993e+03 
2.845500e-01 1.047009e+03 
2.857800e-01 1.040729e+03 
2.870300e-01 1.034415e+03 
2.882100e-01 1.028516e+03 
2.893900e-01 1.022672e+03 
2.906300e-01 1.016591e+03 
2.918900e-01 1.010477e+03 
2.930500e-01 1.004905e+03 
2.942500e-01 9.991972e+02 
2.954200e-01 9.936817e+02 
2.966500e-01 9.879413e+02 
2.978900e-01 9.822134e+02 
2.990400e-01 9.769536e+02 
3.002700e-01 9.713802e+02 
3.015100e-01 9.658170e+02 
3.026800e-01 9.606194e+02 
3.038500e-01 9.554711e+02 
3.050300e-01 9.503283e+02 
3.062600e-01 9.450187e+02 
3.075000e-01 9.397190e+02 
3.087000e-01 9.346402e+02 
3.099100e-01 9.295683e+02 
3.111200e-01 9.245477e+02 
3.123100e-01 9.196614e+02 
3.135300e-01 9.146995e+02 
3.147300e-01 9.098652e+02 
3.159900e-01 9.048379e+02 
3.171800e-01 9.001411e+02 
3.183700e-01 8.954915e+02 
3.196300e-01 8.906150e+02 
3.208400e-01 8.859764e+02 
3.220300e-01 8.814563e+02 
3.232000e-01 8.770659e+02 
3.244300e-01 8.724978e+02 
3.256700e-01 8.679356e+02 
3.269200e-01 8.633797e+02 
3.280800e-01 8.591901e+02 
3.292500e-01 8.550154e+02 
3.304800e-01 8.506704e+02 
3.317100e-01 8.463650e+02 
3.328900e-01 8.422714e+02 
3.340700e-01 8.382134e+02 
3.353600e-01 8.338360e+02 
3.365300e-01 8.299085e+02 
3.377100e-01 8.259813e+02 
3.389200e-01 8.219892e+02 
3.401600e-01 8.179344e+02 
3.413700e-01 8.140262e+02 
3.425300e-01 8.103207e+02 
3.437700e-01 8.063937e+02 
3.449800e-01 8.025952e+02 
3.461800e-01 7.988603e+02 
3.473600e-01 7.952259e+02 
3.485800e-01 7.915179e+02 
3.498100e-01 7.878118e+02 
3.510200e-01 7.841970e+02 
3.522000e-01 7.807012e+02 
3.533900e-01 7.772048e+02 
3.546400e-01 7.735889e+02 
3.558400e-01 7.701484e+02 
3.570600e-01 7.666796e+02 
3.582700e-01 7.632679e+02 
3.595000e-01 7.598287e+02 
3.607100e-01 7.564855e+02 
3.618900e-01 7.532608e+02 
3.631200e-01 7.499269e+02 
3.643200e-01 7.467009e+02 
3.655500e-01 7.434212e+02 
3.667300e-01 7.403002e+02 
3.679500e-01 7.371292e+02 
3.691900e-01 7.339325e+02 
3.703600e-01 7.309404e+02 
3.715700e-01 7.278702e+02 
3.727700e-01 7.248496e+02 
3.739900e-01 7.218070e+02 
3.752000e-01 7.188207e+02 
3.763900e-01 7.159067e+02 
3.775800e-01 7.130152e+02 
3.788200e-01 7.100259e+02 
3.800300e-01 7.071319e+02 
3.812100e-01 7.043302e+02 
3.824200e-01 7.014785e+02 
3.836100e-01 6.986954e+02 
3.848600e-01 6.957947e+02 
3.860400e-01 6.930775e+02 
3.872400e-01 6.903351e+02 
3.884600e-01 6.875948e+02 
3.896500e-01 6.849523e+02 
3.908700e-01 6.822635e+02 
3.920600e-01 6.796606e+02 
3.933100e-01 6.769472e+02 
3.945300e-01 6.743193e+02 
3.957200e-01 6.717733e+02 
3.969300e-01 6.692032e+02 
3.981700e-01 6.665892e+02 
3.993500e-01 6.641202e+02 
4.094840e-01 6.435973e+02 
4.272360e-01 6.107476e+02 
4.454600e-01 5.802269e+02 
4.630560e-01 5.534032e+02 
4.804610e-01 5.290735e+02 
4.980690e-01 5.064789e+02 
5.159230e-01 4.853685e+02 
5.317440e-01 4.680795e+02 
5.489640e-01 4.505360e+02 
5.671990e-01 4.333145e+02 
5.838690e-01 4.187181e+02 
6.018840e-01 4.040681e+02 
6.202330e-01 3.902421e+02 
6.379250e-01 3.777687e+02 
6.545410e-01 3.668382e+02 
6.714560e-01 3.563867e+02 
6.892080e-01 3.460792e+02 
7.066010e-01 3.365476e+02 
7.240540e-01 3.275471e+02 
7.420450e-01 3.188421e+02 
7.593780e-01 3.108421e+02 
7.764720e-01 3.033742e+02 
7.942840e-01 2.959964e+02 
8.116170e-01 2.891103e+02 
8.288310e-01 2.826179e+02 
8.462240e-01 2.763066e+02 
8.631980e-01 2.704133e+02 
8.810700e-01 2.644720e+02 
8.989410e-01 2.587836e+02 
9.166330e-01 2.533554e+02 
9.345640e-01 2.480311e+02 
9.515980e-01 2.431579e+02 
9.688720e-01 2.384007e+02 
9.865640e-01 2.336820e+02 
1.031870e+00 2.222642e+02 
1.063490e+00 2.148245e+02 
1.097920e+00 2.071495e+02 
1.134370e+00 1.995004e+02 
1.167730e+00 1.928337e+02 
1.203830e+00 1.860098e+02 
1.240470e+00 1.794426e+02 
1.275790e+00 1.734033e+02 
1.309140e+00 1.679894e+02 
1.342970e+00 1.627096e+02 
1.378420e+00 1.574602e+02 
1.413200e+00 1.525234e+02 
1.448110e+00 1.477875e+02 
1.484090e+00 1.431301e+02 
1.518820e+00 1.388240e+02 
1.552880e+00 1.347608e+02 
1.588630e+00 1.306859e+02 
1.623230e+00 1.269088e+02 
1.657720e+00 1.232919e+02 
1.692450e+00 1.198189e+02 
1.726400e+00 1.165249e+02 
1.762200e+00 1.131839e+02 
1.797880e+00 1.099936e+02 
1.833270e+00 1.069551e+02 
1.869070e+00 1.039957e+02 
1.903200e+00 1.012884e+02 
1.937740e+00 9.864551e+01 
1.973190e+00 9.602976e+01 
2.007440e+00 9.359341e+01 
2.042160e+00 9.121246e+01 
2.077900e+00 8.884473e+01 
2.112390e+00 8.665396e+01 
2.146220e+00 8.455786e+01 
2.181600e+00 8.245358e+01 
2.216930e+00 8.042514e+01 
2.250760e+00 7.854377e+01 
2.286500e+00 7.662054e+01 
2.321770e+00 7.478855e+01 
2.355950e+00 7.307239e+01 
2.391280e+00 7.134953e+01 
2.426240e+00 6.970451e+01 
2.460670e+00 6.813442e+01 
2.495640e+00 6.658483e+01 
2.531080e+00 6.507193e+01 
2.566220e+00 6.361467e+01 
2.600830e+00 6.222349e+01 
2.635080e+00 6.088967e+01 
2.670340e+00 5.955157e+01 
2.705970e+00 5.824629e+01 
2.740040e+00 5.703718e+01 
2.774520e+00 5.584173e+01 
2.809730e+00 5.465974e+01 
2.844390e+00 5.353149e+01 
2.879960e+00 5.240530e+01 
2.914860e+00 5.133097e+01 
2.949410e+00 5.029844e+01 
2.984440e+00 4.928296e+01 
3.019760e+00 4.828507e+01 
3.054730e+00 4.732375e+01 
3.089030e+00 4.640682e+01 
3.124060e+00 4.549653e+01 
3.159560e+00 4.459959e+01 
3.194710e+00 4.373584e+01 
3.229010e+00 4.291588e+01 
3.263320e+00 4.211291e+01 
3.297930e+00 4.132524e+01 
3.332830e+00 4.055299e+01 
3.368040e+00 3.979346e+01 
3.403300e+00 3.905231e+01 
3.438450e+00 3.833097e+01 
3.473060e+00 3.763895e+01 
3.508440e+00 3.695221e+01 
3.543110e+00 3.629630e+01 
3.577470e+00 3.565980e+01 
3.613040e+00 3.501819e+01 
3.648120e+00 3.440291e+01 
3.682910e+00 3.380639e+01 
3.718050e+00 3.321576e+01 
3.753320e+00 3.263903e+01 
3.787980e+00 3.208810e+01 
3.822290e+00 3.155461e+01 
3.857020e+00 3.102561e+01 
3.891920e+00 3.050654e+01 
3.926650e+00 3.000193e+01 
3.961970e+00 2.950072e+01 
3.997360e+00 2.901006e+01 
4.031670e+00 2.854551e+01 
4.066330e+00 2.808751e+01 
4.101420e+00 2.763437e+01 
4.136200e+00 2.719478e+01 
4.170810e+00 2.676711e+01 
4.206250e+00 2.633961e+01 
4.241580e+00 2.592309e+01 
4.276300e+00 2.552223e+01 
4.310970e+00 2.513031e+01 
4.346120e+00 2.474196e+01 
4.380600e+00 2.436981e+01 
4.414730e+00 2.400912e+01 
4.450350e+00 2.363992e+01 
4.485320e+00 2.328516e+01 
4.519810e+00 2.294323e+01 
4.555430e+00 2.259776e+01 
4.590870e+00 2.226150e+01 
4.625480e+00 2.194041e+01 
4.659910e+00 2.162739e+01 
4.695230e+00 2.131237e+01 
4.729960e+00 2.100876e+01 
4.764450e+00 2.071305e+01 
4.799530e+00 2.041795e+01 
4.834910e+00 2.012621e+01 
4.869700e+00 1.984677e+01 
4.904370e+00 1.957393e+01 
4.939450e+00 1.930307e+01 
4.973940e+00 1.904161e+01 
5.008430e+00 1.878504e+01 
5.043810e+00 1.852665e+01 
5.078840e+00 1.827556e+01 
5.113500e+00 1.803174e+01 
5.148890e+00 1.778919e+01 
5.184210e+00 1.755169e+01 
5.219060e+00 1.732133e+01 
5.253660e+00 1.709589e+01 
5.288570e+00 1.687251e+01 
5.323420e+00 1.665434e+01 
5.358440e+00 1.643992e+01 
5.393590e+00 1.622853e+01 
5.428310e+00 1.602332e+01 
5.462800e+00 1.582295e+01 
5.497640e+00 1.562405e+01 
5.532670e+00 1.542871e+01 
5.567280e+00 1.523939e+01 
5.602000e+00 1.505269e+01 
5.637270e+00 1.486548e+01 
5.672410e+00 1.468196e+01 
5.707020e+00 1.450423e+01 
5.742040e+00 1.432864e+01 
5.777430e+00 1.415441e+01 
5.812210e+00 1.398601e+01 
5.846820e+00 1.382107e+01 
5.881610e+00 1.365792e+01 
5.916510e+00 1.349691e+01 
5.951600e+00 1.333812e+01 
5.986560e+00 1.318269e+01 
6.021830e+00 1.302838e+01 
6.056490e+00 1.287947e+01 
6.091160e+00 1.273311e+01 
6.125830e+00 1.258902e+01 
6.161090e+00 1.244475e+01 
6.195760e+00 1.230506e+01 
6.230420e+00 1.216755e+01 
6.265690e+00 1.202979e+01 
6.300950e+00 1.189482e+01 
6.335620e+00 1.176412e+01 
6.370880e+00 1.163320e+01 
6.405550e+00 1.150676e+01 
6.440220e+00 1.138233e+01 
6.475480e+00 1.125766e+01 
6.510150e+00 1.113707e+01 
6.544810e+00 1.101865e+01 
6.580080e+00 1.089991e+01 
6.614750e+00 1.078489e+01 
6.649410e+00 1.067157e+01 
6.684080e+00 1.055983e+01 
6.719340e+00 1.044783e+01 
6.754010e+00 1.033941e+01 
6.788680e+00 1.023285e+01 
6.823940e+00 1.012601e+01 
6.859800e+00 1.001891e+01 
6.894470e+00 9.917163e+00 
6.929140e+00 9.816940e+00 
6.963800e+00 9.718124e+00 
6.999070e+00 9.618958e+00 
7.033730e+00 9.522877e+00 
7.068400e+00 9.428071e+00 
7.103660e+00 9.332966e+00 
7.138330e+00 9.240986e+00 
7.173600e+00 9.149228e+00 
7.208260e+00 9.060265e+00 
7.243530e+00 8.970944e+00 
7.277600e+00 8.885617e+00 
7.312860e+00 8.798303e+00 
7.348120e+00 8.712151e+00 
7.382790e+00 8.628553e+00 
7.417460e+00 8.546524e+00 
7.452720e+00 8.464435e+00 
7.487390e+00 8.384763e+00 
7.522650e+00 8.304778e+00 
7.557320e+00 8.227171e+00 
7.591990e+00 8.150559e+00 
7.627250e+00 8.073634e+00 
7.662510e+00 7.997691e+00 
7.697180e+00 7.924212e+00 
7.731850e+00 7.851743e+00 
7.766510e+00 7.780191e+00 
7.801180e+00 7.709502e+00 
7.836440e+00 7.638521e+00 
7.871110e+00 7.569602e+00 
7.906380e+00 7.500352e+00 
7.941040e+00 7.433133e+00 
7.976310e+00 7.365721e+00 
8.011570e+00 7.299339e+00 
8.046240e+00 7.234855e+00 
8.080900e+00 7.171160e+00 
8.115570e+00 7.108242e+00 
8.150830e+00 7.045168e+00 
8.185500e+00 6.983887e+00 
8.220770e+00 6.922282e+00 
8.255430e+00 6.862458e+00 
8.290100e+00 6.803473e+00 
8.324770e+00 6.745191e+00 
8.359430e+00 6.687599e+00 
8.394700e+00 6.629673e+00 
8.429960e+00 6.572533e+00 
8.464630e+00 6.517090e+00 
8.499890e+00 6.461350e+00 
8.534560e+00 6.407170e+00 
8.569200e+00 6.353646e+00 
