# Parameters:
# omega_b = 0.022500, omega_m = 0.137500, n_s = 0.950000, h = 62.744141, w = -0.800000,sigma_8 = 0.755000
# z = 0.500000
#
# k[1/Mpc] # P(k):
8.694000e-04 1.068461e+04 
2.077466e-03 2.211245e+04 
3.285532e-03 3.092653e+04 
4.493598e-03 3.761159e+04 
5.701664e-03 4.250944e+04 
6.909730e-03 4.591950e+04 
8.117797e-03 4.816906e+04 
9.325863e-03 4.942890e+04 
1.053393e-02 4.987078e+04 
1.174199e-02 4.965398e+04 
1.295006e-02 4.887972e+04 
1.415813e-02 4.768326e+04 
1.536619e-02 4.617868e+04 
1.657426e-02 4.444581e+04 
1.778233e-02 4.256201e+04 
1.899039e-02 4.062796e+04 
2.019846e-02 3.868239e+04 
2.140652e-02 3.676866e+04 
2.261459e-02 3.491777e+04 
2.382266e-02 3.316351e+04 
2.503072e-02 3.152725e+04 
2.623879e-02 3.001642e+04 
2.744685e-02 2.863292e+04 
2.865492e-02 2.737832e+04 
2.986299e-02 2.624710e+04 
3.100100e-02 2.529113e+04 
3.220400e-02 2.438716e+04 
3.288100e-02 2.392511e+04 
3.424300e-02 2.308523e+04 
3.555100e-02 2.237502e+04 
3.686000e-02 2.174649e+04 
3.795000e-02 2.127363e+04 
3.929100e-02 2.074617e+04 
4.039800e-02 2.034161e+04 
4.164000e-02 1.991115e+04 
4.294400e-02 1.947035e+04 
4.415000e-02 1.906907e+04 
4.542900e-02 1.863297e+04 
4.660900e-02 1.822566e+04 
4.782300e-02 1.778132e+04 
4.892900e-02 1.736591e+04 
5.031200e-02 1.682538e+04 
5.155900e-02 1.631711e+04 
5.238100e-02 1.597463e+04 
5.378200e-02 1.538224e+04 
5.513400e-02 1.480278e+04 
5.627600e-02 1.431309e+04 
5.735300e-02 1.385696e+04 
5.870100e-02 1.329925e+04 
5.988700e-02 1.282643e+04 
6.113500e-02 1.235021e+04 
6.225900e-02 1.194327e+04 
6.340100e-02 1.155373e+04 
6.480200e-02 1.110882e+04 
6.601100e-02 1.075748e+04 
6.725500e-02 1.042668e+04 
6.829100e-02 1.017672e+04 
6.958600e-02 9.890544e+03 
7.071100e-02 9.667283e+03 
7.192300e-02 9.449618e+03 
7.307400e-02 9.262829e+03 
7.412300e-02 9.107586e+03 
7.550400e-02 8.923746e+03 
7.663100e-02 8.786223e+03 
7.791200e-02 8.643653e+03 
7.912700e-02 8.517459e+03 
8.027600e-02 8.403109e+03 
8.138400e-02 8.295858e+03 
8.272200e-02 8.168300e+03 
8.406100e-02 8.040578e+03 
8.534100e-02 7.914819e+03 
8.653800e-02 7.792758e+03 
8.759800e-02 7.682031e+03 
8.900300e-02 7.530222e+03 
9.009000e-02 7.407950e+03 
9.113300e-02 7.286154e+03 
9.239600e-02 7.136517e+03 
9.358000e-02 6.992868e+03 
9.496100e-02 6.821129e+03 
9.608400e-02 6.681419e+03 
9.727500e-02 6.534306e+03 
9.852600e-02 6.379059e+03 
9.973800e-02 6.232419e+03 
1.009000e-01 6.095323e+03 
1.020900e-01 5.959563e+03 
1.034000e-01 5.816215e+03 
1.046000e-01 5.690559e+03 
1.057200e-01 5.580828e+03 
1.069100e-01 5.469336e+03 
1.082500e-01 5.353284e+03 
1.093900e-01 5.261533e+03 
1.105400e-01 5.173789e+03 
1.116900e-01 5.094319e+03 
1.129600e-01 5.010954e+03 
1.142000e-01 4.937015e+03 
1.153300e-01 4.873183e+03 
1.166400e-01 4.803937e+03 
1.177800e-01 4.747217e+03 
1.190000e-01 4.688929e+03 
1.201200e-01 4.637463e+03 
1.213400e-01 4.582862e+03 
1.227100e-01 4.522303e+03 
1.238900e-01 4.470993e+03 
1.250700e-01 4.419243e+03 
1.263200e-01 4.364789e+03 
1.275500e-01 4.310427e+03 
1.287500e-01 4.257332e+03 
1.299900e-01 4.201695e+03 
1.311300e-01 4.150404e+03 
1.323500e-01 4.094787e+03 
1.335900e-01 4.038377e+03 
1.347100e-01 3.986992e+03 
1.359800e-01 3.929217e+03 
1.372100e-01 3.872959e+03 
1.384300e-01 3.817965e+03 
1.395700e-01 3.766620e+03 
1.407700e-01 3.713645e+03 
1.420300e-01 3.658479e+03 
1.432800e-01 3.604981e+03 
1.444500e-01 3.556044e+03 
1.456300e-01 3.507711e+03 
1.468900e-01 3.457832e+03 
1.480500e-01 3.413059e+03 
1.491700e-01 3.371238e+03 
1.503800e-01 3.327666e+03 
1.516400e-01 3.283545e+03 
1.528200e-01 3.244433e+03 
1.540200e-01 3.205431e+03 
1.551900e-01 3.169486e+03 
1.564300e-01 3.132449e+03 
1.576600e-01 3.097071e+03 
1.588700e-01 3.063704e+03 
1.600900e-01 3.030743e+03 
1.612700e-01 3.000398e+03 
1.625400e-01 2.968343e+03 
1.637600e-01 2.938372e+03 
1.649500e-01 2.909806e+03 
1.662200e-01 2.879856e+03 
1.674000e-01 2.852429e+03 
1.685000e-01 2.827286e+03 
1.697500e-01 2.798904e+03 
1.710300e-01 2.770073e+03 
1.722200e-01 2.743742e+03 
1.734400e-01 2.716420e+03 
1.746400e-01 2.689974e+03 
1.758700e-01 2.663066e+03 
1.770900e-01 2.636299e+03 
1.782700e-01 2.610842e+03 
1.794600e-01 2.585220e+03 
1.807000e-01 2.558719e+03 
1.819100e-01 2.533293e+03 
1.830100e-01 2.510267e+03 
1.842200e-01 2.485288e+03 
1.855000e-01 2.459305e+03 
1.867000e-01 2.435291e+03 
1.879200e-01 2.411270e+03 
1.890900e-01 2.388628e+03 
1.902800e-01 2.366108e+03 
1.915200e-01 2.343014e+03 
1.926900e-01 2.321636e+03 
1.939000e-01 2.300102e+03 
1.951700e-01 2.277859e+03 
1.963100e-01 2.258297e+03 
1.975100e-01 2.238276e+03 
1.987800e-01 2.217413e+03 
2.000100e-01 2.197619e+03 
2.012500e-01 2.178198e+03 
2.023400e-01 2.161369e+03 
2.036100e-01 2.142095e+03 
2.048900e-01 2.123176e+03 
2.060400e-01 2.106425e+03 
2.072200e-01 2.089488e+03 
2.084200e-01 2.072648e+03 
2.096900e-01 2.055085e+03 
2.109200e-01 2.038324e+03 
2.121100e-01 2.022398e+03 
2.132700e-01 2.007087e+03 
2.145200e-01 1.990818e+03 
2.157200e-01 1.975447e+03 
2.168800e-01 1.960801e+03 
2.180700e-01 1.945976e+03 
2.193400e-01 1.930387e+03 
2.206000e-01 1.915165e+03 
2.217500e-01 1.901458e+03 
2.229500e-01 1.887341e+03 
2.241400e-01 1.873605e+03 
2.253500e-01 1.859823e+03 
2.264900e-01 1.847004e+03 
2.277100e-01 1.833512e+03 
2.289900e-01 1.819605e+03 
2.301500e-01 1.807165e+03 
2.313600e-01 1.794354e+03 
2.325600e-01 1.781968e+03 
2.337700e-01 1.769636e+03 
2.350000e-01 1.757260e+03 
2.362000e-01 1.745417e+03 
2.374100e-01 1.733718e+03 
2.386500e-01 1.721880e+03 
2.399100e-01 1.710004e+03 
2.410400e-01 1.699614e+03 
2.422500e-01 1.688638e+03 
2.435000e-01 1.677439e+03 
2.447300e-01 1.666577e+03 
2.458700e-01 1.656714e+03 
2.470600e-01 1.646538e+03 
2.483300e-01 1.635810e+03 
2.495600e-01 1.625576e+03 
2.507600e-01 1.615750e+03 
2.519600e-01 1.606038e+03 
2.532200e-01 1.595962e+03 
2.543700e-01 1.586871e+03 
2.555500e-01 1.577646e+03 
2.568000e-01 1.567987e+03 
2.580100e-01 1.558745e+03 
2.592400e-01 1.549429e+03 
2.604100e-01 1.540654e+03 
2.616100e-01 1.531754e+03 
2.628400e-01 1.522735e+03 
2.640600e-01 1.513838e+03 
2.652200e-01 1.505450e+03 
2.664300e-01 1.496797e+03 
2.676500e-01 1.488169e+03 
2.688400e-01 1.479796e+03 
2.700700e-01 1.471207e+03 
2.712400e-01 1.463125e+03 
2.724800e-01 1.454652e+03 
2.736700e-01 1.446562e+03 
2.748800e-01 1.438376e+03 
2.761000e-01 1.430211e+03 
2.773200e-01 1.422134e+03 
2.785400e-01 1.414122e+03 
2.797000e-01 1.406540e+03 
2.808900e-01 1.398841e+03 
2.821400e-01 1.390840e+03 
2.833900e-01 1.382923e+03 
2.845500e-01 1.375601e+03 
2.857800e-01 1.367916e+03 
2.870300e-01 1.360188e+03 
2.882100e-01 1.352969e+03 
2.893900e-01 1.345797e+03 
2.906300e-01 1.338323e+03 
2.918900e-01 1.330808e+03 
2.930500e-01 1.323960e+03 
2.942500e-01 1.316940e+03 
2.954200e-01 1.310143e+03 
2.966500e-01 1.303069e+03 
2.978900e-01 1.296010e+03 
2.990400e-01 1.289527e+03 
3.002700e-01 1.282654e+03 
3.015100e-01 1.275790e+03 
3.026800e-01 1.269377e+03 
3.038500e-01 1.263024e+03 
3.050300e-01 1.256678e+03 
3.062600e-01 1.250123e+03 
3.075000e-01 1.243580e+03 
3.087000e-01 1.237309e+03 
3.099100e-01 1.231047e+03 
3.111200e-01 1.224847e+03 
3.123100e-01 1.218812e+03 
3.135300e-01 1.212683e+03 
3.147300e-01 1.206712e+03 
3.159900e-01 1.200502e+03 
3.171800e-01 1.194699e+03 
3.183700e-01 1.188954e+03 
3.196300e-01 1.182927e+03 
3.208400e-01 1.177195e+03 
3.220300e-01 1.171608e+03 
3.232000e-01 1.166180e+03 
3.244300e-01 1.160531e+03 
3.256700e-01 1.154889e+03 
3.269200e-01 1.149255e+03 
3.280800e-01 1.144073e+03 
3.292500e-01 1.138908e+03 
3.304800e-01 1.133532e+03 
3.317100e-01 1.128204e+03 
3.328900e-01 1.123138e+03 
3.340700e-01 1.118116e+03 
3.353600e-01 1.112694e+03 
3.365300e-01 1.107828e+03 
3.377100e-01 1.102962e+03 
3.389200e-01 1.098015e+03 
3.401600e-01 1.092991e+03 
3.413700e-01 1.088144e+03 
3.425300e-01 1.083546e+03 
3.437700e-01 1.078673e+03 
3.449800e-01 1.073959e+03 
3.461800e-01 1.069325e+03 
3.473600e-01 1.064812e+03 
3.485800e-01 1.060203e+03 
3.498100e-01 1.055596e+03 
3.510200e-01 1.051103e+03 
3.522000e-01 1.046757e+03 
3.533900e-01 1.042411e+03 
3.546400e-01 1.037907e+03 
3.558400e-01 1.033621e+03 
3.570600e-01 1.029299e+03 
3.582700e-01 1.025049e+03 
3.595000e-01 1.020764e+03 
3.607100e-01 1.016595e+03 
3.618900e-01 1.012570e+03 
3.631200e-01 1.008410e+03 
3.643200e-01 1.004384e+03 
3.655500e-01 1.000290e+03 
3.667300e-01 9.963953e+02 
3.679500e-01 9.924256e+02 
3.691900e-01 9.884236e+02 
3.703600e-01 9.846777e+02 
3.715700e-01 9.808340e+02 
3.727700e-01 9.770523e+02 
3.739900e-01 9.732413e+02 
3.752000e-01 9.694972e+02 
3.763900e-01 9.658438e+02 
3.775800e-01 9.622186e+02 
3.788200e-01 9.584708e+02 
3.800300e-01 9.548424e+02 
3.812100e-01 9.513213e+02 
3.824200e-01 9.477315e+02 
3.836100e-01 9.442280e+02 
3.848600e-01 9.405766e+02 
3.860400e-01 9.371561e+02 
3.872400e-01 9.337039e+02 
3.884600e-01 9.302504e+02 
3.896500e-01 9.269184e+02 
3.908700e-01 9.235283e+02 
3.920600e-01 9.202464e+02 
3.933100e-01 9.168253e+02 
3.945300e-01 9.135118e+02 
3.957200e-01 9.102936e+02 
3.969300e-01 9.070426e+02 
3.981700e-01 9.037361e+02 
3.993500e-01 9.006129e+02 
4.094840e-01 8.746062e+02 
4.272360e-01 8.328030e+02 
4.454600e-01 7.937948e+02 
4.630560e-01 7.593700e+02 
4.804610e-01 7.280451e+02 
4.980690e-01 6.988741e+02 
5.159230e-01 6.715542e+02 
5.317440e-01 6.491332e+02 
5.489640e-01 6.263105e+02 
5.671990e-01 6.038473e+02 
5.838690e-01 5.847417e+02 
6.018840e-01 5.655102e+02 
6.202330e-01 5.472634e+02 
6.379250e-01 5.307559e+02 
6.545410e-01 5.162034e+02 
6.714560e-01 5.022368e+02 
6.892080e-01 4.883936e+02 
7.066010e-01 4.755172e+02 
7.240540e-01 4.633042e+02 
7.420450e-01 4.514298e+02 
7.593780e-01 4.404506e+02 
7.764720e-01 4.301535e+02 
7.942840e-01 4.199389e+02 
8.116170e-01 4.103475e+02 
8.288310e-01 4.012546e+02 
8.462240e-01 3.923846e+02 
8.631980e-01 3.840642e+02 
8.810700e-01 3.756442e+02 
8.989410e-01 3.675527e+02 
9.166330e-01 3.597991e+02 
9.345640e-01 3.521709e+02 
9.515980e-01 3.451672e+02 
9.688720e-01 3.383102e+02 
9.865640e-01 3.314917e+02 
1.031870e+00 3.149343e+02 
1.063490e+00 3.040968e+02 
1.097920e+00 2.928910e+02 
1.134370e+00 2.817019e+02 
1.167730e+00 2.719386e+02 
1.203830e+00 2.619297e+02 
1.240470e+00 2.522986e+02 
1.275790e+00 2.434385e+02 
1.309140e+00 2.354996e+02 
1.342970e+00 2.277643e+02 
1.378420e+00 2.200780e+02 
1.413200e+00 2.128538e+02 
1.448110e+00 2.059325e+02 
1.484090e+00 1.991325e+02 
1.518820e+00 1.928594e+02 
1.552880e+00 1.869440e+02 
1.588630e+00 1.810249e+02 
1.623230e+00 1.755440e+02 
1.657720e+00 1.703057e+02 
1.692450e+00 1.652797e+02 
1.726400e+00 1.605220e+02 
1.762200e+00 1.557079e+02 
1.797880e+00 1.511175e+02 
1.833270e+00 1.467507e+02 
1.869070e+00 1.425066e+02 
1.903200e+00 1.386293e+02 
1.937740e+00 1.348511e+02 
1.973190e+00 1.311185e+02 
2.007440e+00 1.276477e+02 
2.042160e+00 1.242598e+02 
2.077900e+00 1.208963e+02 
2.112390e+00 1.177894e+02 
2.146220e+00 1.148224e+02 
2.181600e+00 1.118471e+02 
2.216930e+00 1.089842e+02 
2.250760e+00 1.063325e+02 
2.286500e+00 1.036258e+02 
2.321770e+00 1.010518e+02 
2.355950e+00 9.864360e+01 
2.391280e+00 9.622958e+01 
2.426240e+00 9.392795e+01 
2.460670e+00 9.173425e+01 
2.495640e+00 8.957205e+01 
2.531080e+00 8.746388e+01 
2.566220e+00 8.543650e+01 
2.600830e+00 8.350339e+01 
2.635080e+00 8.165185e+01 
2.670340e+00 7.979761e+01 
2.705970e+00 7.799096e+01 
2.740040e+00 7.631915e+01 
2.774520e+00 7.466825e+01 
2.809730e+00 7.303809e+01 
2.844390e+00 7.148361e+01 
2.879960e+00 6.993403e+01 
2.914860e+00 6.845768e+01 
2.949410e+00 6.704002e+01 
2.984440e+00 6.564755e+01 
3.019760e+00 6.428073e+01 
3.054730e+00 6.296506e+01 
3.089030e+00 6.171206e+01 
3.124060e+00 6.046911e+01 
3.159560e+00 5.924561e+01 
3.194710e+00 5.806881e+01 
3.229010e+00 5.695236e+01 
3.263320e+00 5.586062e+01 
3.297930e+00 5.479036e+01 
3.332830e+00 5.374220e+01 
3.368040e+00 5.271220e+01 
3.403300e+00 5.170785e+01 
3.438450e+00 5.073160e+01 
3.473060e+00 4.979548e+01 
3.508440e+00 4.886766e+01 
3.543110e+00 4.798184e+01 
3.577470e+00 4.712332e+01 
3.613040e+00 4.625833e+01 
3.648120e+00 4.542967e+01 
3.682910e+00 4.462675e+01 
3.718050e+00 4.383251e+01 
3.753320e+00 4.305744e+01 
3.787980e+00 4.231762e+01 
3.822290e+00 4.160165e+01 
3.857020e+00 4.089231e+01 
3.891920e+00 4.019665e+01 
3.926650e+00 3.952097e+01 
3.961970e+00 3.885014e+01 
3.997360e+00 3.819399e+01 
4.031670e+00 3.757297e+01 
4.066330e+00 3.696126e+01 
4.101420e+00 3.635613e+01 
4.136200e+00 3.576975e+01 
4.170810e+00 3.519933e+01 
4.206250e+00 3.462964e+01 
4.241580e+00 3.407474e+01 
4.276300e+00 3.354110e+01 
4.310970e+00 3.301961e+01 
4.346120e+00 3.250305e+01 
4.380600e+00 3.200834e+01 
4.414730e+00 3.152894e+01 
4.450350e+00 3.103871e+01 
4.485320e+00 3.056769e+01 
4.519810e+00 3.011401e+01 
4.555430e+00 2.965578e+01 
4.590870e+00 2.920990e+01 
4.625480e+00 2.878436e+01 
4.659910e+00 2.836955e+01 
4.695230e+00 2.795241e+01 
4.729960e+00 2.755047e+01 
4.764450e+00 2.715910e+01 
4.799530e+00 2.676873e+01 
4.834910e+00 2.638285e+01 
4.869700e+00 2.601342e+01 
4.904370e+00 2.565280e+01 
4.939450e+00 2.529486e+01 
4.973940e+00 2.494950e+01 
5.008430e+00 2.461063e+01 
5.043810e+00 2.426951e+01 
5.078840e+00 2.393812e+01 
5.113500e+00 2.361634e+01 
5.148890e+00 2.329638e+01 
5.184210e+00 2.298312e+01 
5.219060e+00 2.267933e+01 
5.253660e+00 2.238213e+01 
5.288570e+00 2.208766e+01 
5.323420e+00 2.180012e+01 
5.358440e+00 2.151761e+01 
5.393590e+00 2.123909e+01 
5.428310e+00 2.096879e+01 
5.462800e+00 2.070492e+01 
5.497640e+00 2.044299e+01 
5.532670e+00 2.018580e+01 
5.567280e+00 1.993657e+01 
5.602000e+00 1.969078e+01 
5.637270e+00 1.944441e+01 
5.672410e+00 1.920291e+01 
5.707020e+00 1.896906e+01 
5.742040e+00 1.873803e+01 
5.777430e+00 1.850881e+01 
5.812210e+00 1.828728e+01 
5.846820e+00 1.807033e+01 
5.881610e+00 1.785576e+01 
5.916510e+00 1.764400e+01 
5.951600e+00 1.743518e+01 
5.986560e+00 1.723078e+01 
6.021830e+00 1.702787e+01 
6.056490e+00 1.683206e+01 
6.091160e+00 1.663962e+01 
6.125830e+00 1.645019e+01 
6.161090e+00 1.626051e+01 
6.195760e+00 1.607686e+01 
6.230420e+00 1.589609e+01 
6.265690e+00 1.571499e+01 
6.300950e+00 1.553755e+01 
6.335620e+00 1.536573e+01 
6.370880e+00 1.519363e+01 
6.405550e+00 1.502741e+01 
6.440220e+00 1.486383e+01 
6.475480e+00 1.469996e+01 
6.510150e+00 1.454143e+01 
6.544810e+00 1.438575e+01 
6.580080e+00 1.422965e+01 
6.614750e+00 1.407844e+01 
6.649410e+00 1.392945e+01 
6.684080e+00 1.378256e+01 
6.719340e+00 1.363532e+01 
6.754010e+00 1.349278e+01 
6.788680e+00 1.335266e+01 
6.823940e+00 1.321218e+01 
6.859800e+00 1.307136e+01 
6.894470e+00 1.293755e+01 
6.929140e+00 1.280575e+01 
6.963800e+00 1.267581e+01 
6.999070e+00 1.254541e+01 
7.033730e+00 1.241903e+01 
7.068400e+00 1.229434e+01 
7.103660e+00 1.216926e+01 
7.138330e+00 1.204828e+01 
7.173600e+00 1.192756e+01 
7.208260e+00 1.181053e+01 
7.243530e+00 1.169303e+01 
7.277600e+00 1.158077e+01 
7.312860e+00 1.146588e+01 
7.348120e+00 1.135252e+01 
7.382790e+00 1.124254e+01 
7.417460e+00 1.113459e+01 
7.452720e+00 1.102655e+01 
7.487390e+00 1.092171e+01 
7.522650e+00 1.081645e+01 
7.557320e+00 1.071429e+01 
7.591990e+00 1.061343e+01 
7.627250e+00 1.051217e+01 
7.662510e+00 1.041220e+01 
7.697180e+00 1.031546e+01 
7.731850e+00 1.022003e+01 
7.766510e+00 1.012583e+01 
7.801180e+00 1.003276e+01 
7.836440e+00 9.939286e+00 
7.871110e+00 9.848514e+00 
7.906380e+00 9.757314e+00 
7.941040e+00 9.668795e+00 
7.976310e+00 9.580004e+00 
8.011570e+00 9.492547e+00 
8.046240e+00 9.407598e+00 
8.080900e+00 9.323694e+00 
8.115570e+00 9.240812e+00 
8.150830e+00 9.157696e+00 
8.185500e+00 9.076949e+00 
8.220770e+00 8.995783e+00 
8.255430e+00 8.916968e+00 
8.290100e+00 8.839225e+00 
8.324770e+00 8.762410e+00 
8.359430e+00 8.686511e+00 
8.394700e+00 8.610178e+00 
8.429960e+00 8.534863e+00 
8.464630e+00 8.461770e+00 
8.499890e+00 8.388291e+00 
8.534560e+00 8.316873e+00 
8.569200e+00 8.246328e+00 
