# Parameters:
# omega_b = 0.022500, omega_m = 0.137500, n_s = 0.950000, h = 69.033203, w = -1.000000,sigma_8 = 0.755000
# z = 0.979999
#
# k[1/Mpc] # P(k):
8.694000e-04 5.982542e+03 
2.077466e-03 1.261100e+04 
3.285532e-03 1.769643e+04 
4.493598e-03 2.154652e+04 
5.701664e-03 2.435702e+04 
6.909730e-03 2.630686e+04 
8.117797e-03 2.759148e+04 
9.325863e-03 2.831124e+04 
1.053393e-02 2.856499e+04 
1.174199e-02 2.844274e+04 
1.295006e-02 2.800245e+04 
1.415813e-02 2.732088e+04 
1.536619e-02 2.646242e+04 
1.657426e-02 2.547148e+04 
1.778233e-02 2.438456e+04 
1.899039e-02 2.326016e+04 
2.019846e-02 2.213403e+04 
2.140652e-02 2.103545e+04 
2.261459e-02 1.997634e+04 
2.382266e-02 1.897357e+04 
2.503072e-02 1.803896e+04 
2.623879e-02 1.717638e+04 
2.744685e-02 1.638752e+04 
2.865492e-02 1.567265e+04 
2.986299e-02 1.502851e+04 
3.100100e-02 1.448427e+04 
3.220400e-02 1.396983e+04 
3.288100e-02 1.370699e+04 
3.424300e-02 1.322903e+04 
3.555100e-02 1.282441e+04 
3.686000e-02 1.246610e+04 
3.795000e-02 1.219623e+04 
3.929100e-02 1.189434e+04 
4.039800e-02 1.166261e+04 
4.164000e-02 1.141548e+04 
4.294400e-02 1.116185e+04 
4.415000e-02 1.093086e+04 
4.542900e-02 1.067930e+04 
4.660900e-02 1.044430e+04 
4.782300e-02 1.018730e+04 
4.892900e-02 9.947066e+03 
5.031200e-02 9.633985e+03 
5.155900e-02 9.339146e+03 
5.238100e-02 9.140313e+03 
5.378200e-02 8.795827e+03 
5.513400e-02 8.458182e+03 
5.627600e-02 8.172544e+03 
5.735300e-02 7.906221e+03 
5.870100e-02 7.580233e+03 
5.988700e-02 7.303725e+03 
6.113500e-02 7.025070e+03 
6.225900e-02 6.786984e+03 
6.340100e-02 6.559326e+03 
6.480200e-02 6.299787e+03 
6.601100e-02 6.095296e+03 
6.725500e-02 5.903444e+03 
6.829100e-02 5.759319e+03 
6.958600e-02 5.594992e+03 
7.071100e-02 5.467745e+03 
7.192300e-02 5.344636e+03 
7.307400e-02 5.239842e+03 
7.412300e-02 5.153372e+03 
7.550400e-02 5.051854e+03 
7.663100e-02 4.976418e+03 
7.791200e-02 4.898653e+03 
7.912700e-02 4.829912e+03 
8.027600e-02 4.767464e+03 
8.138400e-02 4.708530e+03 
8.272200e-02 4.637677e+03 
8.406100e-02 4.565763e+03 
8.534100e-02 4.493860e+03 
8.653800e-02 4.423024e+03 
8.759800e-02 4.358180e+03 
8.900300e-02 4.268432e+03 
9.009000e-02 4.195492e+03 
9.113300e-02 4.122355e+03 
9.239600e-02 4.032169e+03 
9.358000e-02 3.945276e+03 
9.496100e-02 3.841193e+03 
9.608400e-02 3.756507e+03 
9.727500e-02 3.667362e+03 
9.852600e-02 3.573381e+03 
9.973800e-02 3.484762e+03 
1.009000e-01 3.402046e+03 
1.020900e-01 3.320506e+03 
1.034000e-01 3.234721e+03 
1.046000e-01 3.159841e+03 
1.057200e-01 3.094928e+03 
1.069100e-01 3.029204e+03 
1.082500e-01 2.961420e+03 
1.093900e-01 2.908274e+03 
1.105400e-01 2.857720e+03 
1.116900e-01 2.812553e+03 
1.129600e-01 2.765387e+03 
1.142000e-01 2.724056e+03 
1.153300e-01 2.688585e+03 
1.166400e-01 2.650440e+03 
1.177800e-01 2.619322e+03 
1.190000e-01 2.587405e+03 
1.201200e-01 2.559188e+03 
1.213400e-01 2.529245e+03 
1.227100e-01 2.495749e+03 
1.238900e-01 2.467258e+03 
1.250700e-01 2.438141e+03 
1.263200e-01 2.407311e+03 
1.275500e-01 2.376116e+03 
1.287500e-01 2.345435e+03 
1.299900e-01 2.312959e+03 
1.311300e-01 2.282822e+03 
1.323500e-01 2.249853e+03 
1.335900e-01 2.216258e+03 
1.347100e-01 2.185450e+03 
1.359800e-01 2.150721e+03 
1.372100e-01 2.116711e+03 
1.384300e-01 2.083442e+03 
1.395700e-01 2.052295e+03 
1.407700e-01 2.020183e+03 
1.420300e-01 1.986760e+03 
1.432800e-01 1.954377e+03 
1.444500e-01 1.924824e+03 
1.456300e-01 1.895660e+03 
1.468900e-01 1.865791e+03 
1.480500e-01 1.839060e+03 
1.491700e-01 1.814231e+03 
1.503800e-01 1.788535e+03 
1.516400e-01 1.762593e+03 
1.528200e-01 1.739878e+03 
1.540200e-01 1.717236e+03 
1.551900e-01 1.696658e+03 
1.564300e-01 1.675532e+03 
1.576600e-01 1.655485e+03 
1.588700e-01 1.636738e+03 
1.600900e-01 1.618232e+03 
1.612700e-01 1.601342e+03 
1.625400e-01 1.583503e+03 
1.637600e-01 1.566828e+03 
1.649500e-01 1.550939e+03 
1.662200e-01 1.534258e+03 
1.674000e-01 1.518854e+03 
1.685000e-01 1.504735e+03 
1.697500e-01 1.488687e+03 
1.710300e-01 1.472276e+03 
1.722200e-01 1.457291e+03 
1.734400e-01 1.441458e+03 
1.746400e-01 1.426124e+03 
1.758700e-01 1.410454e+03 
1.770900e-01 1.394720e+03 
1.782700e-01 1.379762e+03 
1.794600e-01 1.364616e+03 
1.807000e-01 1.348892e+03 
1.819100e-01 1.333814e+03 
1.830100e-01 1.320103e+03 
1.842200e-01 1.305228e+03 
1.855000e-01 1.289764e+03 
1.867000e-01 1.275482e+03 
1.879200e-01 1.261205e+03 
1.890900e-01 1.247766e+03 
1.902800e-01 1.234468e+03 
1.915200e-01 1.220839e+03 
1.926900e-01 1.208260e+03 
1.939000e-01 1.195696e+03 
1.951700e-01 1.182724e+03 
1.963100e-01 1.171349e+03 
1.975100e-01 1.159784e+03 
1.987800e-01 1.147739e+03 
2.000100e-01 1.136351e+03 
2.012500e-01 1.125266e+03 
2.023400e-01 1.115663e+03 
2.036100e-01 1.104681e+03 
2.048900e-01 1.093954e+03 
2.060400e-01 1.084459e+03 
2.072200e-01 1.074863e+03 
2.084200e-01 1.065355e+03 
2.096900e-01 1.055441e+03 
2.109200e-01 1.045982e+03 
2.121100e-01 1.036974e+03 
2.132700e-01 1.028316e+03 
2.145200e-01 1.019117e+03 
2.157200e-01 1.010393e+03 
2.168800e-01 1.002066e+03 
2.180700e-01 9.936387e+02 
2.193400e-01 9.847479e+02 
2.206000e-01 9.760095e+02 
2.217500e-01 9.681430e+02 
2.229500e-01 9.600433e+02 
2.241400e-01 9.520619e+02 
2.253500e-01 9.440538e+02 
2.264900e-01 9.366077e+02 
2.277100e-01 9.287234e+02 
2.289900e-01 9.205433e+02 
2.301500e-01 9.132293e+02 
2.313600e-01 9.056986e+02 
2.325600e-01 8.983165e+02 
2.337700e-01 8.909697e+02 
2.350000e-01 8.835995e+02 
2.362000e-01 8.765136e+02 
2.374100e-01 8.694733e+02 
2.386500e-01 8.623519e+02 
2.399100e-01 8.552109e+02 
2.410400e-01 8.489158e+02 
2.422500e-01 8.422609e+02 
2.435000e-01 8.354735e+02 
2.447300e-01 8.288913e+02 
2.458700e-01 8.229095e+02 
2.470600e-01 8.167395e+02 
2.483300e-01 8.102369e+02 
2.495600e-01 8.040386e+02 
2.507600e-01 7.980929e+02 
2.519600e-01 7.922183e+02 
2.532200e-01 7.861254e+02 
2.543700e-01 7.806594e+02 
2.555500e-01 7.751347e+02 
2.568000e-01 7.693517e+02 
2.580100e-01 7.638207e+02 
2.592400e-01 7.582900e+02 
2.604100e-01 7.531010e+02 
2.616100e-01 7.478394e+02 
2.628400e-01 7.425087e+02 
2.640600e-01 7.372960e+02 
2.652200e-01 7.324007e+02 
2.664300e-01 7.273512e+02 
2.676500e-01 7.223179e+02 
2.688400e-01 7.174708e+02 
2.700700e-01 7.125215e+02 
2.712400e-01 7.078658e+02 
2.724800e-01 7.029862e+02 
2.736700e-01 6.983561e+02 
2.748800e-01 6.937002e+02 
2.761000e-01 6.890577e+02 
2.773200e-01 6.844662e+02 
2.785400e-01 6.799241e+02 
2.797000e-01 6.756496e+02 
2.808900e-01 6.713104e+02 
2.821400e-01 6.668018e+02 
2.833900e-01 6.623426e+02 
2.845500e-01 6.582394e+02 
2.857800e-01 6.539342e+02 
2.870300e-01 6.496064e+02 
2.882100e-01 6.455640e+02 
2.893900e-01 6.415590e+02 
2.906300e-01 6.373922e+02 
2.918900e-01 6.332037e+02 
2.930500e-01 6.293874e+02 
2.942500e-01 6.254777e+02 
2.954200e-01 6.216991e+02 
2.966500e-01 6.177669e+02 
2.978900e-01 6.138440e+02 
2.990400e-01 6.102423e+02 
3.002700e-01 6.064250e+02 
3.015100e-01 6.026145e+02 
3.026800e-01 5.990551e+02 
3.038500e-01 5.955301e+02 
3.050300e-01 5.920092e+02 
3.062600e-01 5.883742e+02 
3.075000e-01 5.847465e+02 
3.087000e-01 5.812706e+02 
3.099100e-01 5.777999e+02 
3.111200e-01 5.743649e+02 
3.123100e-01 5.710220e+02 
3.135300e-01 5.676280e+02 
3.147300e-01 5.643217e+02 
3.159900e-01 5.608841e+02 
3.171800e-01 5.576730e+02 
3.183700e-01 5.544947e+02 
3.196300e-01 5.511617e+02 
3.208400e-01 5.479919e+02 
3.220300e-01 5.449036e+02 
3.232000e-01 5.419015e+02 
3.244300e-01 5.387771e+02 
3.256700e-01 5.356573e+02 
3.269200e-01 5.325423e+02 
3.280800e-01 5.296782e+02 
3.292500e-01 5.268247e+02 
3.304800e-01 5.238552e+02 
3.317100e-01 5.209133e+02 
3.328900e-01 5.181165e+02 
3.340700e-01 5.153445e+02 
3.353600e-01 5.123530e+02 
3.365300e-01 5.096687e+02 
3.377100e-01 5.069850e+02 
3.389200e-01 5.042574e+02 
3.401600e-01 5.014873e+02 
3.413700e-01 4.988199e+02 
3.425300e-01 4.962928e+02 
3.437700e-01 4.936150e+02 
3.449800e-01 4.910251e+02 
3.461800e-01 4.884790e+02 
3.473600e-01 4.860015e+02 
3.485800e-01 4.834740e+02 
3.498100e-01 4.809480e+02 
3.510200e-01 4.784846e+02 
3.522000e-01 4.761026e+02 
3.533900e-01 4.737205e+02 
3.546400e-01 4.712568e+02 
3.558400e-01 4.689128e+02 
3.570600e-01 4.665499e+02 
3.582700e-01 4.642261e+02 
3.595000e-01 4.618839e+02 
3.607100e-01 4.596083e+02 
3.618900e-01 4.574144e+02 
3.631200e-01 4.551465e+02 
3.643200e-01 4.529522e+02 
3.655500e-01 4.507216e+02 
3.667300e-01 4.485993e+02 
3.679500e-01 4.464397e+02 
3.691900e-01 4.442630e+02 
3.703600e-01 4.422257e+02 
3.715700e-01 4.401355e+02 
3.727700e-01 4.380793e+02 
3.739900e-01 4.360113e+02 
3.752000e-01 4.339873e+02 
3.763900e-01 4.320124e+02 
3.775800e-01 4.300530e+02 
3.788200e-01 4.280275e+02 
3.800300e-01 4.260668e+02 
3.812100e-01 4.241763e+02 
3.824200e-01 4.222574e+02 
3.836100e-01 4.203848e+02 
3.848600e-01 4.184332e+02 
3.860400e-01 4.166053e+02 
3.872400e-01 4.147605e+02 
3.884600e-01 4.129087e+02 
3.896500e-01 4.111196e+02 
3.908700e-01 4.092994e+02 
3.920600e-01 4.075375e+02 
3.933100e-01 4.057009e+02 
3.945300e-01 4.039223e+02 
3.957200e-01 4.022095e+02 
3.969300e-01 4.004835e+02 
3.981700e-01 3.987281e+02 
3.993500e-01 3.970702e+02 
4.094840e-01 3.833305e+02 
4.272360e-01 3.613822e+02 
4.454600e-01 3.411551e+02 
4.630560e-01 3.235033e+02 
4.804610e-01 3.076033e+02 
4.980690e-01 2.928907e+02 
5.159230e-01 2.792169e+02 
5.317440e-01 2.680332e+02 
5.489640e-01 2.567682e+02 
5.671990e-01 2.457780e+02 
5.838690e-01 2.364849e+02 
6.018840e-01 2.271834e+02 
6.202330e-01 2.184331e+02 
6.379250e-01 2.106030e+02 
6.545410e-01 2.037758e+02 
6.714560e-01 1.972696e+02 
6.892080e-01 1.908969e+02 
7.066010e-01 1.850661e+02 
7.240540e-01 1.795783e+02 
7.420450e-01 1.742823e+02 
7.593780e-01 1.694865e+02 
7.764720e-01 1.650218e+02 
7.942840e-01 1.606306e+02 
8.116170e-01 1.565929e+02 
8.288310e-01 1.527931e+02 
8.462240e-01 1.491433e+02 
8.631980e-01 1.457521e+02 
8.810700e-01 1.423497e+02 
8.989410e-01 1.391080e+02 
9.166330e-01 1.360412e+02 
9.345640e-01 1.330692e+02 
9.515980e-01 1.303618e+02 
9.688720e-01 1.277240e+02 
9.865640e-01 1.251258e+02 
1.031870e+00 1.189075e+02 
1.063490e+00 1.148931e+02 
1.097920e+00 1.107948e+02 
1.134370e+00 1.067234e+02 
1.167730e+00 1.032214e+02 
1.203830e+00 9.963681e+01 
1.240470e+00 9.620937e+01 
1.275790e+00 9.307616e+01 
1.309140e+00 9.027348e+01 
1.342970e+00 8.755292e+01 
1.378420e+00 8.484529e+01 
1.413200e+00 8.230832e+01 
1.448110e+00 7.987553e+01 
1.484090e+00 7.748572e+01 
1.518820e+00 7.527805e+01 
1.552880e+00 7.320003e+01 
1.588630e+00 7.110987e+01 
1.623230e+00 6.917268e+01 
1.657720e+00 6.731834e+01 
1.692450e+00 6.552612e+01 
1.726400e+00 6.383610e+01 
1.762200e+00 6.212210e+01 
1.797880e+00 6.048112e+01 
1.833270e+00 5.891438e+01 
1.869070e+00 5.738905e+01 
1.903200e+00 5.598770e+01 
1.937740e+00 5.461940e+01 
1.973190e+00 5.326352e+01 
2.007440e+00 5.199978e+01 
2.042160e+00 5.076224e+01 
2.077900e+00 4.953054e+01 
2.112390e+00 4.838380e+01 
2.146220e+00 4.729276e+01 
2.181600e+00 4.618888e+01 
2.216930e+00 4.512346e+01 
2.250760e+00 4.413540e+01 
2.286500e+00 4.312445e+01 
2.321770e+00 4.215925e+01 
2.355950e+00 4.125265e+01 
2.391280e+00 4.034251e+01 
2.426240e+00 3.946949e+01 
2.460670e+00 3.863604e+01 
2.495640e+00 3.781543e+01 
2.531080e+00 3.700658e+01 
2.566220e+00 3.622826e+01 
2.600830e+00 3.548440e+01 
2.635080e+00 3.476974e+01 
2.670340e+00 3.405314e+01 
2.705970e+00 3.335031e+01 
2.740040e+00 3.269746e+01 
2.774520e+00 3.205360e+01 
2.809730e+00 3.141408e+01 
2.844390e+00 3.080226e+01 
2.879960e+00 3.019103e+01 
2.914860e+00 2.960727e+01 
2.949410e+00 2.904516e+01 
2.984440e+00 2.848936e+01 
3.019760e+00 2.794411e+01 
3.054730e+00 2.741910e+01 
3.089030e+00 2.691565e+01 
3.124060e+00 2.641515e+01 
3.159560e+00 2.592108e+01 
3.194710e+00 2.544383e+01 
3.229010e+00 2.499027e+01 
3.263320e+00 2.454687e+01 
3.297930e+00 2.411096e+01 
3.332830e+00 2.368187e+01 
3.368040e+00 2.325943e+01 
3.403300e+00 2.284686e+01 
3.438450e+00 2.244512e+01 
3.473060e+00 2.205953e+01 
3.508440e+00 2.167420e+01 
3.543110e+00 2.130602e+01 
3.577470e+00 2.094887e+01 
3.613040e+00 2.058812e+01 
3.648120e+00 2.024039e+01 
3.682910e+00 1.990367e+01 
3.718050e+00 1.957119e+01 
3.753320e+00 1.924529e+01 
3.787980e+00 1.893222e+01 
3.822290e+00 1.862926e+01 
3.857020e+00 1.832919e+01 
3.891920e+00 1.803436e+01 
3.926650e+00 1.774709e+01 
3.961970e+00 1.746160e+01 
3.997360e+00 1.718185e+01 
4.031670e+00 1.691668e+01 
4.066330e+00 1.665422e+01 
4.101420e+00 1.639446e+01 
4.136200e+00 1.614227e+01 
4.170810e+00 1.589683e+01 
4.206250e+00 1.565054e+01 
4.241580e+00 1.541035e+01 
4.276300e+00 1.517919e+01 
4.310970e+00 1.495316e+01 
4.346120e+00 1.472883e+01 
4.380600e+00 1.451330e+01 
4.414730e+00 1.430437e+01 
4.450350e+00 1.409057e+01 
4.485320e+00 1.388507e+01 
4.519810e+00 1.368640e+01 
4.555430e+00 1.348536e+01 
4.590870e+00 1.328946e+01 
4.625480e+00 1.310197e+01 
4.659910e+00 1.291917e+01 
4.695230e+00 1.273523e+01 
4.729960e+00 1.255793e+01 
4.764450e+00 1.238526e+01 
4.799530e+00 1.221302e+01 
4.834910e+00 1.204270e+01 
4.869700e+00 1.187849e+01 
4.904370e+00 1.171798e+01 
4.939450e+00 1.155867e+01 
4.973940e+00 1.140504e+01 
5.008430e+00 1.125426e+01 
5.043810e+00 1.110247e+01 
5.078840e+00 1.095498e+01 
5.113500e+00 1.081174e+01 
5.148890e+00 1.066831e+01 
5.184210e+00 1.052781e+01 
5.219060e+00 1.039172e+01 
5.253660e+00 1.025910e+01 
5.288570e+00 1.012766e+01 
5.323420e+00 9.998863e+00 
5.358440e+00 9.871804e+00 
5.393590e+00 9.746526e+00 
5.428310e+00 9.625057e+00 
5.462800e+00 9.506528e+00 
5.497640e+00 9.388849e+00 
5.532670e+00 9.272665e+00 
5.567280e+00 9.159861e+00 
5.602000e+00 9.048605e+00 
5.637270e+00 8.937671e+00 
5.672410e+00 8.829054e+00 
5.707020e+00 8.723856e+00 
5.742040e+00 8.619311e+00 
5.777430e+00 8.515444e+00 
5.812210e+00 8.415049e+00 
5.846820e+00 8.316909e+00 
5.881610e+00 8.219885e+00 
5.916510e+00 8.124120e+00 
5.951600e+00 8.029533e+00 
5.986560e+00 7.936871e+00 
6.021830e+00 7.844877e+00 
6.056490e+00 7.756028e+00 
6.091160e+00 7.668642e+00 
6.125830e+00 7.582609e+00 
6.161090e+00 7.496540e+00 
6.195760e+00 7.413366e+00 
6.230420e+00 7.331483e+00 
6.265690e+00 7.249441e+00 
6.300950e+00 7.168882e+00 
6.335620e+00 7.090868e+00 
6.370880e+00 7.012720e+00 
6.405550e+00 6.937193e+00 
6.440220e+00 6.862847e+00 
6.475480e+00 6.788356e+00 
6.510150e+00 6.716245e+00 
6.544810e+00 6.645325e+00 
6.580080e+00 6.574209e+00 
6.614750e+00 6.505318e+00 
6.649410e+00 6.437666e+00 
6.684080e+00 6.371003e+00 
6.719340e+00 6.304174e+00 
6.754010e+00 6.239451e+00 
6.788680e+00 6.175757e+00 
6.823940e+00 6.111892e+00 
6.859800e+00 6.047865e+00 
6.894470e+00 5.986993e+00 
6.929140e+00 5.927017e+00 
6.963800e+00 5.867878e+00 
6.999070e+00 5.808536e+00 
7.033730e+00 5.751170e+00 
7.068400e+00 5.694561e+00 
7.103660e+00 5.637770e+00 
7.138330e+00 5.582757e+00 
7.173600e+00 5.527699e+00 
7.208260e+00 5.474317e+00 
7.243530e+00 5.420716e+00 
7.277600e+00 5.369726e+00 
7.312860e+00 5.317742e+00 
7.348120e+00 5.266445e+00 
7.382790e+00 5.216664e+00 
7.417460e+00 5.167637e+00 
7.452720e+00 5.118479e+00 
7.487390e+00 5.070765e+00 
7.522650e+00 5.022861e+00 
7.557320e+00 4.976481e+00 
7.591990e+00 4.930731e+00 
7.627250e+00 4.884789e+00 
7.662510e+00 4.839431e+00 
7.697180e+00 4.795521e+00 
7.731850e+00 4.752203e+00 
7.766510e+00 4.709431e+00 
7.801180e+00 4.667172e+00 
7.836440e+00 4.624844e+00 
7.871110e+00 4.583810e+00 
7.906380e+00 4.542576e+00 
7.941040e+00 4.502546e+00 
7.976310e+00 4.462367e+00 
8.011570e+00 4.422758e+00 
8.046240e+00 4.384280e+00 
8.080900e+00 4.346269e+00 
8.115570e+00 4.308728e+00 
8.150830e+00 4.271126e+00 
8.185500e+00 4.234590e+00 
8.220770e+00 4.197858e+00 
8.255430e+00 4.162183e+00 
8.290100e+00 4.127039e+00 
8.324770e+00 4.092314e+00 
8.359430e+00 4.057997e+00 
8.394700e+00 4.023477e+00 
8.429960e+00 3.989445e+00 
8.464630e+00 3.956445e+00 
8.499890e+00 3.923264e+00 
8.534560e+00 3.891008e+00 
8.569200e+00 3.859140e+00 
