# Parameters:
# omega_b = 0.022500, omega_m = 0.137500, n_s = 0.950000, h = 69.033203, w = -1.000000,sigma_8 = 0.755000
# z = 0.730000
#
# k[1/Mpc] # P(k):
8.694000e-04 7.504585e+03 
2.077466e-03 1.581941e+04 
3.285532e-03 2.220019e+04 
4.493598e-03 2.702917e+04 
5.701664e-03 3.055276e+04 
6.909730e-03 3.299717e+04 
8.117797e-03 3.460632e+04 
9.325863e-03 3.550717e+04 
1.053393e-02 3.582321e+04 
1.174199e-02 3.566796e+04 
1.295006e-02 3.511362e+04 
1.415813e-02 3.425667e+04 
1.536619e-02 3.317817e+04 
1.657426e-02 3.193406e+04 
1.778233e-02 3.057248e+04 
1.899039e-02 2.916528e+04 
2.019846e-02 2.775470e+04 
2.140652e-02 2.637703e+04 
2.261459e-02 2.504836e+04 
2.382266e-02 2.379046e+04 
2.503072e-02 2.261819e+04 
2.623879e-02 2.153674e+04 
2.744685e-02 2.054745e+04 
2.865492e-02 1.965124e+04 
2.986299e-02 1.884342e+04 
3.100100e-02 1.816142e+04 
3.220400e-02 1.751618e+04 
3.288100e-02 1.718668e+04 
3.424300e-02 1.658710e+04 
3.555100e-02 1.607947e+04 
3.686000e-02 1.562949e+04 
3.795000e-02 1.529035e+04 
3.929100e-02 1.491095e+04 
4.039800e-02 1.461940e+04 
4.164000e-02 1.430844e+04 
4.294400e-02 1.398935e+04 
4.415000e-02 1.369881e+04 
4.542900e-02 1.338254e+04 
4.660900e-02 1.308722e+04 
4.782300e-02 1.276497e+04 
4.892900e-02 1.246380e+04 
5.031200e-02 1.207216e+04 
5.155900e-02 1.170382e+04 
5.238100e-02 1.145563e+04 
5.378200e-02 1.102612e+04 
5.513400e-02 1.060563e+04 
5.627600e-02 1.025020e+04 
5.735300e-02 9.918959e+03 
5.870100e-02 9.513693e+03 
5.988700e-02 9.170020e+03 
6.113500e-02 8.823847e+03 
6.225900e-02 8.528067e+03 
6.340100e-02 8.245132e+03 
6.480200e-02 7.922337e+03 
6.601100e-02 7.667924e+03 
6.725500e-02 7.428966e+03 
6.829100e-02 7.249156e+03 
6.958600e-02 7.044034e+03 
7.071100e-02 6.884873e+03 
7.192300e-02 6.730458e+03 
7.307400e-02 6.598742e+03 
7.412300e-02 6.489865e+03 
7.550400e-02 6.361641e+03 
7.663100e-02 6.266136e+03 
7.791200e-02 6.167479e+03 
7.912700e-02 6.080029e+03 
8.027600e-02 6.000593e+03 
8.138400e-02 5.925661e+03 
8.272200e-02 5.835686e+03 
8.406100e-02 5.744608e+03 
8.534100e-02 5.653872e+03 
8.653800e-02 5.564791e+03 
8.759800e-02 5.483448e+03 
8.900300e-02 5.371193e+03 
9.009000e-02 5.280274e+03 
9.113300e-02 5.189368e+03 
9.239600e-02 5.077493e+03 
9.358000e-02 4.969979e+03 
9.496100e-02 4.841453e+03 
9.608400e-02 4.736993e+03 
9.727500e-02 4.627104e+03 
9.852600e-02 4.511532e+03 
9.973800e-02 4.402587e+03 
1.009000e-01 4.300918e+03 
1.020900e-01 4.200767e+03 
1.034000e-01 4.095336e+03 
1.046000e-01 4.003240e+03 
1.057200e-01 3.923337e+03 
1.069100e-01 3.842376e+03 
1.082500e-01 3.758712e+03 
1.093900e-01 3.692928e+03 
1.105400e-01 3.630235e+03 
1.116900e-01 3.573965e+03 
1.129600e-01 3.515097e+03 
1.142000e-01 3.463236e+03 
1.153300e-01 3.418596e+03 
1.166400e-01 3.370379e+03 
1.177800e-01 3.330891e+03 
1.190000e-01 3.290315e+03 
1.201200e-01 3.254359e+03 
1.213400e-01 3.216188e+03 
1.227100e-01 3.173394e+03 
1.238900e-01 3.137016e+03 
1.250700e-01 3.099935e+03 
1.263200e-01 3.060745e+03 
1.275500e-01 3.021242e+03 
1.287500e-01 2.982495e+03 
1.299900e-01 2.941640e+03 
1.311300e-01 2.903850e+03 
1.323500e-01 2.862691e+03 
1.335900e-01 2.820859e+03 
1.347100e-01 2.782637e+03 
1.359800e-01 2.739649e+03 
1.372100e-01 2.697748e+03 
1.384300e-01 2.656812e+03 
1.395700e-01 2.618622e+03 
1.407700e-01 2.579251e+03 
1.420300e-01 2.538406e+03 
1.432800e-01 2.498815e+03 
1.444500e-01 2.462711e+03 
1.456300e-01 2.427069e+03 
1.468900e-01 2.390500e+03 
1.480500e-01 2.357746e+03 
1.491700e-01 2.327257e+03 
1.503800e-01 2.295622e+03 
1.516400e-01 2.263641e+03 
1.528200e-01 2.235482e+03 
1.540200e-01 2.207408e+03 
1.551900e-01 2.181692e+03 
1.564300e-01 2.155238e+03 
1.576600e-01 2.130039e+03 
1.588700e-01 2.106357e+03 
1.600900e-01 2.082969e+03 
1.612700e-01 2.061485e+03 
1.625400e-01 2.038794e+03 
1.637600e-01 2.017558e+03 
1.649500e-01 1.997307e+03 
1.662200e-01 1.976058e+03 
1.674000e-01 1.956493e+03 
1.685000e-01 1.938560e+03 
1.697500e-01 1.918237e+03 
1.710300e-01 1.897516e+03 
1.722200e-01 1.878595e+03 
1.734400e-01 1.858774e+03 
1.746400e-01 1.839584e+03 
1.758700e-01 1.820016e+03 
1.770900e-01 1.800463e+03 
1.782700e-01 1.781870e+03 
1.794600e-01 1.763101e+03 
1.807000e-01 1.743652e+03 
1.819100e-01 1.724998e+03 
1.830100e-01 1.708075e+03 
1.842200e-01 1.689717e+03 
1.855000e-01 1.670628e+03 
1.867000e-01 1.653005e+03 
1.879200e-01 1.635383e+03 
1.890900e-01 1.618787e+03 
1.902800e-01 1.602332e+03 
1.915200e-01 1.585463e+03 
1.926900e-01 1.569874e+03 
1.939000e-01 1.554244e+03 
1.951700e-01 1.538102e+03 
1.963100e-01 1.523931e+03 
1.975100e-01 1.509484e+03 
1.987800e-01 1.494434e+03 
2.000100e-01 1.480181e+03 
2.012500e-01 1.466252e+03 
2.023400e-01 1.454184e+03 
2.036100e-01 1.440375e+03 
2.048900e-01 1.426862e+03 
2.060400e-01 1.414901e+03 
2.072200e-01 1.402809e+03 
2.084200e-01 1.390807e+03 
2.096900e-01 1.378292e+03 
2.109200e-01 1.366350e+03 
2.121100e-01 1.354981e+03 
2.132700e-01 1.344052e+03 
2.145200e-01 1.332441e+03 
2.157200e-01 1.321444e+03 
2.168800e-01 1.310955e+03 
2.180700e-01 1.300339e+03 
2.193400e-01 1.289147e+03 
2.206000e-01 1.278163e+03 
2.217500e-01 1.268273e+03 
2.229500e-01 1.258090e+03 
2.241400e-01 1.248084e+03 
2.253500e-01 1.238044e+03 
2.264900e-01 1.228708e+03 
2.277100e-01 1.218834e+03 
2.289900e-01 1.208602e+03 
2.301500e-01 1.199452e+03 
2.313600e-01 1.190030e+03 
2.325600e-01 1.180813e+03 
2.337700e-01 1.171639e+03 
2.350000e-01 1.162434e+03 
2.362000e-01 1.153581e+03 
2.374100e-01 1.144784e+03 
2.386500e-01 1.135884e+03 
2.399100e-01 1.126958e+03 
2.410400e-01 1.119099e+03 
2.422500e-01 1.110792e+03 
2.435000e-01 1.102318e+03 
2.447300e-01 1.094096e+03 
2.458700e-01 1.086614e+03 
2.470600e-01 1.078895e+03 
2.483300e-01 1.070758e+03 
2.495600e-01 1.063001e+03 
2.507600e-01 1.055559e+03 
2.519600e-01 1.048204e+03 
2.532200e-01 1.040575e+03 
2.543700e-01 1.033723e+03 
2.555500e-01 1.026792e+03 
2.568000e-01 1.019535e+03 
2.580100e-01 1.012594e+03 
2.592400e-01 1.005646e+03 
2.604100e-01 9.991234e+02 
2.616100e-01 9.925087e+02 
2.628400e-01 9.858064e+02 
2.640600e-01 9.792503e+02 
2.652200e-01 9.730920e+02 
2.664300e-01 9.667391e+02 
2.676500e-01 9.604058e+02 
2.688400e-01 9.543033e+02 
2.700700e-01 9.480699e+02 
2.712400e-01 9.422055e+02 
2.724800e-01 9.360583e+02 
2.736700e-01 9.302216e+02 
2.748800e-01 9.243485e+02 
2.761000e-01 9.184915e+02 
2.773200e-01 9.126983e+02 
2.785400e-01 9.069657e+02 
2.797000e-01 9.015678e+02 
2.808900e-01 8.960876e+02 
2.821400e-01 8.903929e+02 
2.833900e-01 8.847598e+02 
2.845500e-01 8.795753e+02 
2.857800e-01 8.741350e+02 
2.870300e-01 8.686655e+02 
2.882100e-01 8.635562e+02 
2.893900e-01 8.584951e+02 
2.906300e-01 8.532297e+02 
2.918900e-01 8.479362e+02 
2.930500e-01 8.431127e+02 
2.942500e-01 8.381698e+02 
2.954200e-01 8.333901e+02 
2.966500e-01 8.284157e+02 
2.978900e-01 8.234524e+02 
2.990400e-01 8.188950e+02 
3.002700e-01 8.140669e+02 
3.015100e-01 8.092484e+02 
3.026800e-01 8.047467e+02 
3.038500e-01 8.002880e+02 
3.050300e-01 7.958341e+02 
3.062600e-01 7.912361e+02 
3.075000e-01 7.866469e+02 
3.087000e-01 7.822492e+02 
3.099100e-01 7.778577e+02 
3.111200e-01 7.735109e+02 
3.123100e-01 7.692810e+02 
3.135300e-01 7.649858e+02 
3.147300e-01 7.608012e+02 
3.159900e-01 7.564498e+02 
3.171800e-01 7.523836e+02 
3.183700e-01 7.483579e+02 
3.196300e-01 7.441358e+02 
3.208400e-01 7.401200e+02 
3.220300e-01 7.362069e+02 
3.232000e-01 7.324052e+02 
3.244300e-01 7.284494e+02 
3.256700e-01 7.244989e+02 
3.269200e-01 7.205540e+02 
3.280800e-01 7.169265e+02 
3.292500e-01 7.133116e+02 
3.304800e-01 7.095492e+02 
3.317100e-01 7.058213e+02 
3.328900e-01 7.022770e+02 
3.340700e-01 6.987637e+02 
3.353600e-01 6.949727e+02 
3.365300e-01 6.915710e+02 
3.377100e-01 6.881697e+02 
3.389200e-01 6.847124e+02 
3.401600e-01 6.812009e+02 
3.413700e-01 6.778163e+02 
3.425300e-01 6.746074e+02 
3.437700e-01 6.712068e+02 
3.449800e-01 6.679176e+02 
3.461800e-01 6.646836e+02 
3.473600e-01 6.615371e+02 
3.485800e-01 6.583280e+02 
3.498100e-01 6.551206e+02 
3.510200e-01 6.519923e+02 
3.522000e-01 6.489672e+02 
3.533900e-01 6.459416e+02 
3.546400e-01 6.428092e+02 
3.558400e-01 6.398287e+02 
3.570600e-01 6.368238e+02 
3.582700e-01 6.338685e+02 
3.595000e-01 6.308894e+02 
3.607100e-01 6.279936e+02 
3.618900e-01 6.252008e+02 
3.631200e-01 6.223134e+02 
3.643200e-01 6.195195e+02 
3.655500e-01 6.166793e+02 
3.667300e-01 6.139765e+02 
3.679500e-01 6.112216e+02 
3.691900e-01 6.084445e+02 
3.703600e-01 6.058451e+02 
3.715700e-01 6.031780e+02 
3.727700e-01 6.005540e+02 
3.739900e-01 5.979143e+02 
3.752000e-01 5.953293e+02 
3.763900e-01 5.928071e+02 
3.775800e-01 5.903043e+02 
3.788200e-01 5.877169e+02 
3.800300e-01 5.852122e+02 
3.812100e-01 5.827943e+02 
3.824200e-01 5.803381e+02 
3.836100e-01 5.779411e+02 
3.848600e-01 5.754428e+02 
3.860400e-01 5.731027e+02 
3.872400e-01 5.707408e+02 
3.884600e-01 5.683682e+02 
3.896500e-01 5.660754e+02 
3.908700e-01 5.637426e+02 
3.920600e-01 5.614843e+02 
3.933100e-01 5.591302e+02 
3.945300e-01 5.568503e+02 
3.957200e-01 5.546503e+02 
3.969300e-01 5.524321e+02 
3.981700e-01 5.501759e+02 
3.993500e-01 5.480449e+02 
4.094840e-01 5.303730e+02 
4.272360e-01 5.020406e+02 
4.454600e-01 4.758190e+02 
4.630560e-01 4.528548e+02 
4.804610e-01 4.321024e+02 
4.980690e-01 4.128424e+02 
5.159230e-01 3.948966e+02 
5.317440e-01 3.801834e+02 
5.489640e-01 3.653272e+02 
5.671990e-01 3.507988e+02 
5.838690e-01 3.384790e+02 
6.018840e-01 3.261181e+02 
6.202330e-01 3.144562e+02 
6.379250e-01 3.039878e+02 
6.545410e-01 2.948245e+02 
6.714560e-01 2.860640e+02 
6.892080e-01 2.774609e+02 
7.066010e-01 2.695503e+02 
7.240540e-01 2.620738e+02 
7.420450e-01 2.548295e+02 
7.593780e-01 2.482401e+02 
7.764720e-01 2.420796e+02 
7.942840e-01 2.359953e+02 
8.116170e-01 2.303712e+02 
8.288310e-01 2.250534e+02 
8.462240e-01 2.199243e+02 
8.631980e-01 2.151372e+02 
8.810700e-01 2.103140e+02 
8.989410e-01 2.056975e+02 
9.166330e-01 2.013116e+02 
9.345640e-01 1.970414e+02 
9.515980e-01 1.931351e+02 
9.688720e-01 1.893145e+02 
9.865640e-01 1.855371e+02 
1.031870e+00 1.764462e+02 
1.063490e+00 1.705222e+02 
1.097920e+00 1.644681e+02 
1.134370e+00 1.583997e+02 
1.167730e+00 1.531622e+02 
1.203830e+00 1.477835e+02 
1.240470e+00 1.426290e+02 
1.275790e+00 1.378933e+02 
1.309140e+00 1.336507e+02 
1.342970e+00 1.295177e+02 
1.378420e+00 1.254050e+02 
1.413200e+00 1.215487e+02 
1.448110e+00 1.178380e+02 
1.484090e+00 1.141977e+02 
1.518820e+00 1.108209e+02 
1.552880e+00 1.076552e+02 
1.588630e+00 1.044600e+02 
1.623230e+00 1.015049e+02 
1.657720e+00 9.867425e+01 
1.692450e+00 9.595112e+01 
1.726400e+00 9.336948e+01 
1.762200e+00 9.075220e+01 
1.797880e+00 8.825523e+01 
1.833270e+00 8.586402e+01 
1.869070e+00 8.354624e+01 
1.903200e+00 8.141655e+01 
1.937740e+00 7.933706e+01 
1.973190e+00 7.727763e+01 
2.007440e+00 7.536120e+01 
2.042160e+00 7.349156e+01 
2.077900e+00 7.162424e+01 
2.112390e+00 6.989435e+01 
2.146220e+00 6.824039e+01 
2.181600e+00 6.657702e+01 
2.216930e+00 6.497307e+01 
2.250760e+00 6.348137e+01 
2.286500e+00 6.195538e+01 
2.321770e+00 6.050642e+01 
2.355950e+00 5.915313e+01 
2.391280e+00 5.778829e+01 
2.426240e+00 5.647959e+01 
2.460670e+00 5.523069e+01 
2.495640e+00 5.400179e+01 
2.531080e+00 5.279960e+01 
2.566220e+00 5.163801e+01 
2.600830e+00 5.052961e+01 
2.635080e+00 4.946899e+01 
2.670340e+00 4.840042e+01 
2.705970e+00 4.735704e+01 
2.740040e+00 4.639075e+01 
2.774520e+00 4.543891e+01 
2.809730e+00 4.449411e+01 
2.844390e+00 4.359080e+01 
2.879960e+00 4.268899e+01 
2.914860e+00 4.182849e+01 
2.949410e+00 4.100050e+01 
2.984440e+00 4.018272e+01 
3.019760e+00 3.938349e+01 
3.054730e+00 3.861560e+01 
3.089030e+00 3.787673e+01 
3.124060e+00 3.714423e+01 
3.159560e+00 3.642397e+01 
3.194710e+00 3.572576e+01 
3.229010e+00 3.506195e+01 
3.263320e+00 3.441698e+01 
3.297930e+00 3.378323e+01 
3.332830e+00 3.315978e+01 
3.368040e+00 3.254651e+01 
3.403300e+00 3.194799e+01 
3.438450e+00 3.136550e+01 
3.473060e+00 3.080663e+01 
3.508440e+00 3.025136e+01 
3.543110e+00 2.972068e+01 
3.577470e+00 2.920411e+01 
3.613040e+00 2.868324e+01 
3.648120e+00 2.818333e+01 
3.682910e+00 2.769944e+01 
3.718050e+00 2.722183e+01 
3.753320e+00 2.675375e+01 
3.787980e+00 2.630414e+01 
3.822290e+00 2.587014e+01 
3.857020e+00 2.544192e+01 
3.891920e+00 2.502054e+01 
3.926650e+00 2.460877e+01 
3.961970e+00 2.420021e+01 
3.997360e+00 2.380133e+01 
4.031670e+00 2.342333e+01 
4.066330e+00 2.304933e+01 
4.101420e+00 2.267931e+01 
4.136200e+00 2.232156e+01 
4.170810e+00 2.197348e+01 
4.206250e+00 2.162415e+01 
4.241580e+00 2.128353e+01 
4.276300e+00 2.095609e+01 
4.310970e+00 2.063616e+01 
4.346120e+00 2.031881e+01 
4.380600e+00 2.001417e+01 
4.414730e+00 1.971893e+01 
4.450350e+00 1.941714e+01 
4.485320e+00 1.912714e+01 
4.519810e+00 1.884710e+01 
4.555430e+00 1.856391e+01 
4.590870e+00 1.828808e+01 
4.625480e+00 1.802431e+01 
4.659910e+00 1.776716e+01 
4.695230e+00 1.750879e+01 
4.729960e+00 1.725983e+01 
4.764450e+00 1.701755e+01 
4.799530e+00 1.677608e+01 
4.834910e+00 1.653737e+01 
4.869700e+00 1.630742e+01 
4.904370e+00 1.608269e+01 
4.939450e+00 1.585975e+01 
4.973940e+00 1.564490e+01 
5.008430e+00 1.543408e+01 
5.043810e+00 1.522211e+01 
5.078840e+00 1.501631e+01 
5.113500e+00 1.481646e+01 
5.148890e+00 1.461643e+01 
5.184210e+00 1.442051e+01 
5.219060e+00 1.423084e+01 
5.253660e+00 1.404618e+01 
5.288570e+00 1.386320e+01 
5.323420e+00 1.368398e+01 
5.358440e+00 1.350727e+01 
5.393590e+00 1.333305e+01 
5.428310e+00 1.316423e+01 
5.462800e+00 1.299956e+01 
5.497640e+00 1.283609e+01 
5.532670e+00 1.267485e+01 
5.567280e+00 1.251836e+01 
5.602000e+00 1.236404e+01 
5.637270e+00 1.221021e+01 
5.672410e+00 1.205962e+01 
5.707020e+00 1.191378e+01 
5.742040e+00 1.176900e+01 
5.777430e+00 1.162520e+01 
5.812210e+00 1.148622e+01 
5.846820e+00 1.135039e+01 
5.881610e+00 1.121612e+01 
5.916510e+00 1.108362e+01 
5.951600e+00 1.095285e+01 
5.986560e+00 1.082480e+01 
6.021830e+00 1.069768e+01 
6.056490e+00 1.057494e+01 
6.091160e+00 1.045423e+01 
6.125830e+00 1.033541e+01 
6.161090e+00 1.021655e+01 
6.195760e+00 1.010171e+01 
6.230420e+00 9.988659e+00 
6.265690e+00 9.875405e+00 
6.300950e+00 9.764326e+00 
6.335620e+00 9.656766e+00 
6.370880e+00 9.549030e+00 
6.405550e+00 9.444890e+00 
6.440220e+00 9.342377e+00 
6.475480e+00 9.239673e+00 
6.510150e+00 9.140291e+00 
6.544810e+00 9.042631e+00 
6.580080e+00 8.944710e+00 
6.614750e+00 8.849859e+00 
6.649410e+00 8.756659e+00 
6.684080e+00 8.664818e+00 
6.719340e+00 8.572757e+00 
6.754010e+00 8.483618e+00 
6.788680e+00 8.395940e+00 
6.823940e+00 8.308034e+00 
6.859800e+00 8.219912e+00 
6.894470e+00 8.136121e+00 
6.929140e+00 8.053561e+00 
6.963800e+00 7.972162e+00 
6.999070e+00 7.890495e+00 
7.033730e+00 7.811630e+00 
7.068400e+00 7.733813e+00 
7.103660e+00 7.655750e+00 
7.138330e+00 7.580119e+00 
7.173600e+00 7.504392e+00 
7.208260e+00 7.430974e+00 
7.243530e+00 7.357264e+00 
7.277600e+00 7.287136e+00 
7.312860e+00 7.215635e+00 
7.348120e+00 7.145084e+00 
7.382790e+00 7.076625e+00 
7.417460e+00 7.009216e+00 
7.452720e+00 6.941635e+00 
7.487390e+00 6.876046e+00 
7.522650e+00 6.810201e+00 
7.557320e+00 6.746462e+00 
7.591990e+00 6.683595e+00 
7.627250e+00 6.620472e+00 
7.662510e+00 6.558154e+00 
7.697180e+00 6.497818e+00 
7.731850e+00 6.438296e+00 
7.766510e+00 6.379528e+00 
7.801180e+00 6.321469e+00 
7.836440e+00 6.263279e+00 
7.871110e+00 6.206846e+00 
7.906380e+00 6.150141e+00 
7.941040e+00 6.095099e+00 
7.976310e+00 6.039860e+00 
8.011570e+00 5.985417e+00 
8.046240e+00 5.932532e+00 
8.080900e+00 5.880292e+00 
8.115570e+00 5.828706e+00 
8.150830e+00 5.777049e+00 
8.185500e+00 5.726860e+00 
8.220770e+00 5.676405e+00 
8.255430e+00 5.627408e+00 
8.290100e+00 5.579112e+00 
8.324770e+00 5.531393e+00 
8.359430e+00 5.484238e+00 
8.394700e+00 5.436810e+00 
8.429960e+00 5.390039e+00 
8.464630e+00 5.344675e+00 
8.499890e+00 5.299066e+00 
8.534560e+00 5.254733e+00 
8.569200e+00 5.210937e+00 
