# Parameters:
# omega_b = 0.022500, omega_m = 0.137500, n_s = 0.950000, h = 69.033203, w = -1.000000,sigma_8 = 0.755000
# z = 0.570000
#
# k[1/Mpc] # P(k):
8.694000e-04 8.732638e+03 
2.077466e-03 1.840782e+04 
3.285532e-03 2.583258e+04 
4.493598e-03 3.145075e+04 
5.701664e-03 3.554932e+04 
6.909730e-03 3.839193e+04 
8.117797e-03 4.026255e+04 
9.325863e-03 4.130876e+04 
1.053393e-02 4.167454e+04 
1.174199e-02 4.149189e+04 
1.295006e-02 4.084481e+04 
1.415813e-02 3.984595e+04 
1.536619e-02 3.858965e+04 
1.657426e-02 3.714108e+04 
1.778233e-02 3.555779e+04 
1.899039e-02 3.392318e+04 
2.019846e-02 3.228379e+04 
2.140652e-02 3.068085e+04 
2.261459e-02 2.913482e+04 
2.382266e-02 2.767130e+04 
2.503072e-02 2.630754e+04 
2.623879e-02 2.504961e+04 
2.744685e-02 2.389898e+04 
2.865492e-02 2.285658e+04 
2.986299e-02 2.191716e+04 
3.100100e-02 2.112394e+04 
3.220400e-02 2.037364e+04 
3.288100e-02 1.999023e+04 
3.424300e-02 1.929264e+04 
3.555100e-02 1.870189e+04 
3.686000e-02 1.817797e+04 
3.795000e-02 1.778293e+04 
3.929100e-02 1.734083e+04 
4.039800e-02 1.700085e+04 
4.164000e-02 1.663824e+04 
4.294400e-02 1.626612e+04 
4.415000e-02 1.592721e+04 
4.542900e-02 1.555868e+04 
4.660900e-02 1.521468e+04 
4.782300e-02 1.483985e+04 
4.892900e-02 1.448975e+04 
5.031200e-02 1.403488e+04 
5.155900e-02 1.360760e+04 
5.238100e-02 1.331988e+04 
5.378200e-02 1.282242e+04 
5.513400e-02 1.233593e+04 
5.627600e-02 1.192491e+04 
5.735300e-02 1.154203e+04 
5.870100e-02 1.107381e+04 
5.988700e-02 1.067684e+04 
6.113500e-02 1.027703e+04 
6.225900e-02 9.935438e+03 
6.340100e-02 9.608602e+03 
6.480200e-02 9.235587e+03 
6.601100e-02 8.941455e+03 
6.725500e-02 8.665013e+03 
6.829100e-02 8.456725e+03 
6.958600e-02 8.218888e+03 
7.071100e-02 8.034060e+03 
7.192300e-02 7.854492e+03 
7.307400e-02 7.701033e+03 
7.412300e-02 7.573966e+03 
7.550400e-02 7.424046e+03 
7.663100e-02 7.312174e+03 
7.791200e-02 7.196370e+03 
7.912700e-02 7.093605e+03 
8.027600e-02 7.000160e+03 
8.138400e-02 6.912047e+03 
8.272200e-02 6.806409e+03 
8.406100e-02 6.699688e+03 
8.534100e-02 6.593566e+03 
8.653800e-02 6.489708e+03 
8.759800e-02 6.395061e+03 
8.900300e-02 6.264741e+03 
9.009000e-02 6.159448e+03 
9.113300e-02 6.054414e+03 
9.239600e-02 5.925340e+03 
9.358000e-02 5.801505e+03 
9.496100e-02 5.653728e+03 
9.608400e-02 5.533751e+03 
9.727500e-02 5.407632e+03 
9.852600e-02 5.275162e+03 
9.973800e-02 5.150342e+03 
1.009000e-01 5.033902e+03 
1.020900e-01 4.919248e+03 
1.034000e-01 4.798506e+03 
1.046000e-01 4.692993e+03 
1.057200e-01 4.601370e+03 
1.069100e-01 4.508471e+03 
1.082500e-01 4.412292e+03 
1.093900e-01 4.336531e+03 
1.105400e-01 4.264245e+03 
1.116900e-01 4.199115e+03 
1.129600e-01 4.130886e+03 
1.142000e-01 4.070554e+03 
1.153300e-01 4.018497e+03 
1.166400e-01 3.962071e+03 
1.177800e-01 3.915741e+03 
1.190000e-01 3.868076e+03 
1.201200e-01 3.825728e+03 
1.213400e-01 3.780753e+03 
1.227100e-01 3.730319e+03 
1.238900e-01 3.687470e+03 
1.250700e-01 3.643876e+03 
1.263200e-01 3.597865e+03 
1.275500e-01 3.551625e+03 
1.287500e-01 3.506352e+03 
1.299900e-01 3.458741e+03 
1.311300e-01 3.414799e+03 
1.323500e-01 3.367081e+03 
1.335900e-01 3.318687e+03 
1.347100e-01 3.274607e+03 
1.359800e-01 3.225099e+03 
1.372100e-01 3.176990e+03 
1.384300e-01 3.130030e+03 
1.395700e-01 3.086331e+03 
1.407700e-01 3.041279e+03 
1.420300e-01 2.994615e+03 
1.432800e-01 2.949374e+03 
1.444500e-01 2.908186e+03 
1.456300e-01 2.867514e+03 
1.468900e-01 2.825716e+03 
1.480500e-01 2.788254e+03 
1.491700e-01 2.753328e+03 
1.503800e-01 2.717023e+03 
1.516400e-01 2.680284e+03 
1.528200e-01 2.647802e+03 
1.540200e-01 2.615412e+03 
1.551900e-01 2.585595e+03 
1.564300e-01 2.554882e+03 
1.576600e-01 2.525547e+03 
1.588700e-01 2.497882e+03 
1.600900e-01 2.470552e+03 
1.612700e-01 2.445341e+03 
1.625400e-01 2.418712e+03 
1.637600e-01 2.393766e+03 
1.649500e-01 2.369963e+03 
1.662200e-01 2.344992e+03 
1.674000e-01 2.322039e+03 
1.685000e-01 2.300999e+03 
1.697500e-01 2.277202e+03 
1.710300e-01 2.252984e+03 
1.722200e-01 2.230867e+03 
1.734400e-01 2.207834e+03 
1.746400e-01 2.185537e+03 
1.758700e-01 2.162837e+03 
1.770900e-01 2.140225e+03 
1.782700e-01 2.118723e+03 
1.794600e-01 2.097066e+03 
1.807000e-01 2.074658e+03 
1.819100e-01 2.053162e+03 
1.830100e-01 2.033698e+03 
1.842200e-01 2.012587e+03 
1.855000e-01 1.990632e+03 
1.867000e-01 1.970369e+03 
1.879200e-01 1.950102e+03 
1.890900e-01 1.931008e+03 
1.902800e-01 1.912053e+03 
1.915200e-01 1.892617e+03 
1.926900e-01 1.874641e+03 
1.939000e-01 1.856573e+03 
1.951700e-01 1.837913e+03 
1.963100e-01 1.821516e+03 
1.975100e-01 1.804766e+03 
1.987800e-01 1.787315e+03 
2.000100e-01 1.770771e+03 
2.012500e-01 1.754564e+03 
2.023400e-01 1.740522e+03 
2.036100e-01 1.724448e+03 
2.048900e-01 1.708689e+03 
2.060400e-01 1.694738e+03 
2.072200e-01 1.680634e+03 
2.084200e-01 1.666615e+03 
2.096900e-01 1.651996e+03 
2.109200e-01 1.638045e+03 
2.121100e-01 1.624769e+03 
2.132700e-01 1.612006e+03 
2.145200e-01 1.598445e+03 
2.157200e-01 1.585607e+03 
2.168800e-01 1.573364e+03 
2.180700e-01 1.560973e+03 
2.193400e-01 1.547918e+03 
2.206000e-01 1.535124e+03 
2.217500e-01 1.523604e+03 
2.229500e-01 1.511741e+03 
2.241400e-01 1.500111e+03 
2.253500e-01 1.488442e+03 
2.264900e-01 1.477589e+03 
2.277100e-01 1.466120e+03 
2.289900e-01 1.454245e+03 
2.301500e-01 1.443625e+03 
2.313600e-01 1.432689e+03 
2.325600e-01 1.422009e+03 
2.337700e-01 1.411377e+03 
2.350000e-01 1.400709e+03 
2.362000e-01 1.390456e+03 
2.374100e-01 1.380273e+03 
2.386500e-01 1.369970e+03 
2.399100e-01 1.359636e+03 
2.410400e-01 1.350542e+03 
2.422500e-01 1.340928e+03 
2.435000e-01 1.331120e+03 
2.447300e-01 1.321603e+03 
2.458700e-01 1.312938e+03 
2.470600e-01 1.303998e+03 
2.483300e-01 1.294574e+03 
2.495600e-01 1.285589e+03 
2.507600e-01 1.276967e+03 
2.519600e-01 1.268446e+03 
2.532200e-01 1.259607e+03 
2.543700e-01 1.251661e+03 
2.555500e-01 1.243618e+03 
2.568000e-01 1.235197e+03 
2.580100e-01 1.227141e+03 
2.592400e-01 1.219070e+03 
2.604100e-01 1.211490e+03 
2.616100e-01 1.203802e+03 
2.628400e-01 1.196012e+03 
2.640600e-01 1.188385e+03 
2.652200e-01 1.181218e+03 
2.664300e-01 1.173825e+03 
2.676500e-01 1.166453e+03 
2.688400e-01 1.159345e+03 
2.700700e-01 1.152081e+03 
2.712400e-01 1.145246e+03 
2.724800e-01 1.138081e+03 
2.736700e-01 1.131272e+03 
2.748800e-01 1.124414e+03 
2.761000e-01 1.117574e+03 
2.773200e-01 1.110809e+03 
2.785400e-01 1.104112e+03 
2.797000e-01 1.097801e+03 
2.808900e-01 1.091395e+03 
2.821400e-01 1.084737e+03 
2.833900e-01 1.078150e+03 
2.845500e-01 1.072084e+03 
2.857800e-01 1.065719e+03 
2.870300e-01 1.059318e+03 
2.882100e-01 1.053339e+03 
2.893900e-01 1.047411e+03 
2.906300e-01 1.041242e+03 
2.918900e-01 1.035039e+03 
2.930500e-01 1.029386e+03 
2.942500e-01 1.023593e+03 
2.954200e-01 1.017991e+03 
2.966500e-01 1.012160e+03 
2.978900e-01 1.006342e+03 
2.990400e-01 1.000999e+03 
3.002700e-01 9.953380e+02 
3.015100e-01 9.896868e+02 
3.026800e-01 9.844070e+02 
3.038500e-01 9.791773e+02 
3.050300e-01 9.739530e+02 
3.062600e-01 9.685589e+02 
3.075000e-01 9.631747e+02 
3.087000e-01 9.580150e+02 
3.099100e-01 9.528622e+02 
3.111200e-01 9.477615e+02 
3.123100e-01 9.427974e+02 
3.135300e-01 9.377564e+02 
3.147300e-01 9.328449e+02 
3.159900e-01 9.277373e+02 
3.171800e-01 9.229647e+02 
3.183700e-01 9.182395e+02 
3.196300e-01 9.132836e+02 
3.208400e-01 9.085694e+02 
3.220300e-01 9.039757e+02 
3.232000e-01 8.995132e+02 
3.244300e-01 8.948698e+02 
3.256700e-01 8.902324e+02 
3.269200e-01 8.856014e+02 
3.280800e-01 8.813427e+02 
3.292500e-01 8.770985e+02 
3.304800e-01 8.726809e+02 
3.317100e-01 8.683036e+02 
3.328900e-01 8.641416e+02 
3.340700e-01 8.600158e+02 
3.353600e-01 8.555638e+02 
3.365300e-01 8.515689e+02 
3.377100e-01 8.475744e+02 
3.389200e-01 8.435138e+02 
3.401600e-01 8.393893e+02 
3.413700e-01 8.354128e+02 
3.425300e-01 8.316419e+02 
3.437700e-01 8.276454e+02 
3.449800e-01 8.237796e+02 
3.461800e-01 8.199786e+02 
3.473600e-01 8.162797e+02 
3.485800e-01 8.125057e+02 
3.498100e-01 8.087335e+02 
3.510200e-01 8.050543e+02 
3.522000e-01 8.014961e+02 
3.533900e-01 7.979374e+02 
3.546400e-01 7.942531e+02 
3.558400e-01 7.907473e+02 
3.570600e-01 7.872127e+02 
3.582700e-01 7.837362e+02 
3.595000e-01 7.802317e+02 
3.607100e-01 7.768242e+02 
3.618900e-01 7.735369e+02 
3.631200e-01 7.701382e+02 
3.643200e-01 7.668495e+02 
3.655500e-01 7.635061e+02 
3.667300e-01 7.603244e+02 
3.679500e-01 7.570843e+02 
3.691900e-01 7.538179e+02 
3.703600e-01 7.507605e+02 
3.715700e-01 7.476234e+02 
3.727700e-01 7.445369e+02 
3.739900e-01 7.414292e+02 
3.752000e-01 7.383812e+02 
3.763900e-01 7.354069e+02 
3.775800e-01 7.324557e+02 
3.788200e-01 7.294046e+02 
3.800300e-01 7.264508e+02 
3.812100e-01 7.235928e+02 
3.824200e-01 7.206849e+02 
3.836100e-01 7.178470e+02 
3.848600e-01 7.148891e+02 
3.860400e-01 7.121184e+02 
3.872400e-01 7.093220e+02 
3.884600e-01 7.065203e+02 
3.896500e-01 7.038157e+02 
3.908700e-01 7.010638e+02 
3.920600e-01 6.983998e+02 
3.933100e-01 6.956227e+02 
3.945300e-01 6.929330e+02 
3.957200e-01 6.903297e+02 
3.969300e-01 6.877023e+02 
3.981700e-01 6.850301e+02 
3.993500e-01 6.825060e+02 
4.094840e-01 6.615366e+02 
4.272360e-01 6.279009e+02 
4.454600e-01 5.966550e+02 
4.630560e-01 5.691978e+02 
4.804610e-01 5.443048e+02 
4.980690e-01 5.211703e+02 
5.159230e-01 4.995622e+02 
5.317440e-01 4.818435e+02 
5.489640e-01 4.638839e+02 
5.671990e-01 4.462669e+02 
5.838690e-01 4.313149e+02 
6.018840e-01 4.162957e+02 
6.202330e-01 4.021009e+02 
6.379250e-01 3.893094e+02 
6.545410e-01 3.780848e+02 
6.714560e-01 3.673394e+02 
6.892080e-01 3.567459e+02 
7.066010e-01 3.469547e+02 
7.240540e-01 3.376914e+02 
7.420450e-01 3.287099e+02 
7.593780e-01 3.204761e+02 
7.764720e-01 3.127727e+02 
7.942840e-01 3.051524e+02 
8.116170e-01 2.980547e+02 
8.288310e-01 2.913424e+02 
8.462240e-01 2.848306e+02 
8.631980e-01 2.787415e+02 
8.810700e-01 2.725959e+02 
8.989410e-01 2.667044e+02 
9.166330e-01 2.610846e+02 
9.345640e-01 2.555827e+02 
9.515980e-01 2.505420e+02 
9.688720e-01 2.456117e+02 
9.865640e-01 2.407229e+02 
1.031870e+00 2.289030e+02 
1.063490e+00 2.211847e+02 
1.097920e+00 2.132480e+02 
1.134370e+00 2.053080e+02 
1.167730e+00 1.984111e+02 
1.203830e+00 1.913369e+02 
1.240470e+00 1.845393e+02 
1.275790e+00 1.782866e+02 
1.309140e+00 1.726825e+02 
1.342970e+00 1.672189e+02 
1.378420e+00 1.617857e+02 
1.413200e+00 1.566825e+02 
1.448110e+00 1.517806e+02 
1.484090e+00 1.469667e+02 
1.518820e+00 1.425103e+02 
1.552880e+00 1.383189e+02 
1.588630e+00 1.341051e+02 
1.623230e+00 1.302047e+02 
1.657720e+00 1.264706e+02 
1.692450e+00 1.228847e+02 
1.726400e+00 1.194841e+02 
1.762200e+00 1.160377e+02 
1.797880e+00 1.127503e+02 
1.833270e+00 1.096121e+02 
1.869070e+00 1.065647e+02 
1.903200e+00 1.037726e+02 
1.937740e+00 1.010480e+02 
1.973190e+00 9.835194e+01 
2.007440e+00 9.584319e+01 
2.042160e+00 9.339485e+01 
2.077900e+00 9.095587e+01 
2.112390e+00 8.870008e+01 
2.146220e+00 8.654235e+01 
2.181600e+00 8.437649e+01 
2.216930e+00 8.228952e+01 
2.250760e+00 8.035181e+01 
2.286500e+00 7.837113e+01 
2.321770e+00 7.648869e+01 
2.355950e+00 7.472901e+01 
2.391280e+00 7.295891e+01 
2.426240e+00 7.126649e+01 
2.460670e+00 6.965189e+01 
2.495640e+00 6.806095e+01 
2.531080e+00 6.650809e+01 
2.566220e+00 6.501037e+01 
2.600830e+00 6.358151e+01 
2.635080e+00 6.221354e+01 
2.670340e+00 6.083870e+01 
2.705970e+00 5.949802e+01 
2.740040e+00 5.825692e+01 
2.774520e+00 5.703223e+01 
2.809730e+00 5.581985e+01 
2.844390e+00 5.466216e+01 
2.879960e+00 5.350697e+01 
2.914860e+00 5.240530e+01 
2.949410e+00 5.134629e+01 
2.984440e+00 5.030336e+01 
3.019760e+00 4.928150e+01 
3.054730e+00 4.829857e+01 
3.089030e+00 4.735766e+01 
3.124060e+00 4.642455e+01 
3.159560e+00 4.550649e+01 
3.194710e+00 4.461992e+01 
3.229010e+00 4.377785e+01 
3.263320e+00 4.295673e+01 
3.297930e+00 4.215085e+01 
3.332830e+00 4.135990e+01 
3.368040e+00 4.058217e+01 
3.403300e+00 3.982338e+01 
3.438450e+00 3.908518e+01 
3.473060e+00 3.837705e+01 
3.508440e+00 3.767462e+01 
3.543110e+00 3.700357e+01 
3.577470e+00 3.635152e+01 
3.613040e+00 3.569435e+01 
3.648120e+00 3.506436e+01 
3.682910e+00 3.445410e+01 
3.718050e+00 3.385082e+01 
3.753320e+00 3.326094e+01 
3.787980e+00 3.269625e+01 
3.822290e+00 3.215039e+01 
3.857020e+00 3.161057e+01 
3.891920e+00 3.108023e+01 
3.926650e+00 3.056351e+01 
3.961970e+00 3.005063e+01 
3.997360e+00 2.954941e+01 
4.031670e+00 2.907474e+01 
4.066330e+00 2.860618e+01 
4.101420e+00 2.814263e+01 
4.136200e+00 2.769389e+01 
4.170810e+00 2.725731e+01 
4.206250e+00 2.682028e+01 
4.241580e+00 2.639437e+01 
4.276300e+00 2.598479e+01 
4.310970e+00 2.558453e+01 
4.346120e+00 2.518780e+01 
4.380600e+00 2.480743e+01 
4.414730e+00 2.443881e+01 
4.450350e+00 2.406184e+01 
4.485320e+00 2.369962e+01 
4.519810e+00 2.335033e+01 
4.555430e+00 2.299734e+01 
4.590870e+00 2.265370e+01 
4.625480e+00 2.232543e+01 
4.659910e+00 2.200542e+01 
4.695230e+00 2.168369e+01 
4.729960e+00 2.137368e+01 
4.764450e+00 2.107187e+01 
4.799530e+00 2.077092e+01 
4.834910e+00 2.047341e+01 
4.869700e+00 2.018782e+01 
4.904370e+00 1.990890e+01 
4.939450e+00 1.963210e+01 
4.973940e+00 1.936514e+01 
5.008430e+00 1.910319e+01 
5.043810e+00 1.883963e+01 
5.078840e+00 1.858364e+01 
5.113500e+00 1.833507e+01 
5.148890e+00 1.808719e+01 
5.184210e+00 1.784446e+01 
5.219060e+00 1.760923e+01 
5.253660e+00 1.737957e+01 
5.288570e+00 1.715202e+01 
5.323420e+00 1.692952e+01 
5.358440e+00 1.671058e+01 
5.393590e+00 1.649474e+01 
5.428310e+00 1.628539e+01 
5.462800e+00 1.608108e+01 
5.497640e+00 1.587827e+01 
5.532670e+00 1.567876e+01 
5.567280e+00 1.548530e+01 
5.602000e+00 1.529451e+01 
5.637270e+00 1.510370e+01 
5.672410e+00 1.491677e+01 
5.707020e+00 1.473575e+01 
5.742040e+00 1.455655e+01 
5.777430e+00 1.437869e+01 
5.812210e+00 1.420678e+01 
5.846820e+00 1.403857e+01 
5.881610e+00 1.387224e+01 
5.916510e+00 1.370809e+01 
5.951600e+00 1.354618e+01 
5.986560e+00 1.338767e+01 
6.021830e+00 1.323032e+01 
6.056490e+00 1.307843e+01 
6.091160e+00 1.292912e+01 
6.125830e+00 1.278214e+01 
6.161090e+00 1.263503e+01 
6.195760e+00 1.249272e+01 
6.230420e+00 1.235264e+01 
6.265690e+00 1.221231e+01 
6.300950e+00 1.207476e+01 
6.335620e+00 1.194158e+01 
6.370880e+00 1.180818e+01 
6.405550e+00 1.167929e+01 
6.440220e+00 1.155243e+01 
6.475480e+00 1.142534e+01 
6.510150e+00 1.130239e+01 
6.544810e+00 1.118163e+01 
6.580080e+00 1.106054e+01 
6.614750e+00 1.094325e+01 
6.649410e+00 1.082781e+01 
6.684080e+00 1.071401e+01 
6.719340e+00 1.059995e+01 
6.754010e+00 1.048952e+01 
6.788680e+00 1.038096e+01 
6.823940e+00 1.027211e+01 
6.859800e+00 1.016299e+01 
6.894470e+00 1.005929e+01 
6.929140e+00 9.957125e+00 
6.963800e+00 9.856399e+00 
6.999070e+00 9.755329e+00 
7.033730e+00 9.657543e+00 
7.068400e+00 9.561059e+00 
7.103660e+00 9.464271e+00 
7.138330e+00 9.370591e+00 
7.173600e+00 9.276981e+00 
7.208260e+00 9.186227e+00 
7.243530e+00 9.095110e+00 
7.277600e+00 9.008212e+00 
7.312860e+00 8.919423e+00 
7.348120e+00 8.831817e+00 
7.382790e+00 8.746810e+00 
7.417460e+00 8.663273e+00 
7.452720e+00 8.579611e+00 
7.487390e+00 8.498414e+00 
7.522650e+00 8.416902e+00 
7.557320e+00 8.337885e+00 
7.591990e+00 8.259909e+00 
7.627250e+00 8.181616e+00 
7.662510e+00 8.104324e+00 
7.697180e+00 8.029513e+00 
7.731850e+00 7.955722e+00 
7.766510e+00 7.882867e+00 
7.801180e+00 7.810892e+00 
7.836440e+00 7.738667e+00 
7.871110e+00 7.668569e+00 
7.906380e+00 7.598137e+00 
7.941040e+00 7.529772e+00 
7.976310e+00 7.461187e+00 
8.011570e+00 7.393623e+00 
8.046240e+00 7.327993e+00 
8.080900e+00 7.263167e+00 
8.115570e+00 7.199141e+00 
8.150830e+00 7.134982e+00 
8.185500e+00 7.072648e+00 
8.220770e+00 7.009987e+00 
8.255430e+00 6.949137e+00 
8.290100e+00 6.889139e+00 
8.324770e+00 6.829856e+00 
8.359430e+00 6.771277e+00 
8.394700e+00 6.712359e+00 
8.429960e+00 6.654244e+00 
8.464630e+00 6.597859e+00 
8.499890e+00 6.541173e+00 
8.534560e+00 6.486074e+00 
8.569200e+00 6.431645e+00 
