# Parameters:
# omega_b = 0.022500, omega_m = 0.137500, n_s = 0.950000, h = 69.033203, w = -1.000000,sigma_8 = 0.755000
# z = 0.440000
#
# k[1/Mpc] # P(k):
8.694000e-04 9.911114e+03 
2.077466e-03 2.089155e+04 
3.285532e-03 2.931732e+04 
4.493598e-03 3.569240e+04 
5.701664e-03 4.034245e+04 
6.909730e-03 4.356660e+04 
8.117797e-03 4.568787e+04 
9.325863e-03 4.687303e+04 
1.053393e-02 4.728618e+04 
1.174199e-02 4.707671e+04 
1.295006e-02 4.634011e+04 
1.415813e-02 4.520479e+04 
1.536619e-02 4.377768e+04 
1.657426e-02 4.213278e+04 
1.778233e-02 4.033667e+04 
1.899039e-02 3.848437e+04 
2.019846e-02 3.662588e+04 
2.140652e-02 3.480669e+04 
2.261459e-02 3.305219e+04 
2.382266e-02 3.139151e+04 
2.503072e-02 2.984417e+04 
2.623879e-02 2.841697e+04 
2.744685e-02 2.711177e+04 
2.865492e-02 2.592916e+04 
2.986299e-02 2.486380e+04 
3.100100e-02 2.396378e+04 
3.220400e-02 2.311301e+04 
3.288100e-02 2.267779e+04 
3.424300e-02 2.188620e+04 
3.555100e-02 2.121569e+04 
3.686000e-02 2.062083e+04 
3.795000e-02 2.017213e+04 
3.929100e-02 1.966976e+04 
4.039800e-02 1.928318e+04 
4.164000e-02 1.887093e+04 
4.294400e-02 1.844775e+04 
4.415000e-02 1.806219e+04 
4.542900e-02 1.764347e+04 
4.660900e-02 1.725276e+04 
4.782300e-02 1.682751e+04 
4.892900e-02 1.643065e+04 
5.031200e-02 1.591518e+04 
5.155900e-02 1.543160e+04 
5.238100e-02 1.510616e+04 
5.378200e-02 1.454396e+04 
5.513400e-02 1.399473e+04 
5.627600e-02 1.353087e+04 
5.735300e-02 1.309897e+04 
5.870100e-02 1.257104e+04 
5.988700e-02 1.212355e+04 
6.113500e-02 1.167287e+04 
6.225900e-02 1.128783e+04 
6.340100e-02 1.091936e+04 
6.480200e-02 1.049874e+04 
6.601100e-02 1.016689e+04 
6.725500e-02 9.854849e+03 
6.829100e-02 9.619454e+03 
6.958600e-02 9.350369e+03 
7.071100e-02 9.140971e+03 
7.192300e-02 8.937339e+03 
7.307400e-02 8.763002e+03 
7.412300e-02 8.618399e+03 
7.550400e-02 8.447552e+03 
7.663100e-02 8.319849e+03 
7.791200e-02 8.187386e+03 
7.912700e-02 8.069767e+03 
8.027600e-02 7.962663e+03 
8.138400e-02 7.861703e+03 
8.272200e-02 7.740869e+03 
8.406100e-02 7.619008e+03 
8.534100e-02 7.497987e+03 
8.653800e-02 7.379908e+03 
8.759800e-02 7.272500e+03 
8.900300e-02 7.124909e+03 
9.009000e-02 7.005918e+03 
9.113300e-02 6.887476e+03 
9.239600e-02 6.742114e+03 
9.358000e-02 6.602846e+03 
9.496100e-02 6.436930e+03 
9.608400e-02 6.302378e+03 
9.727500e-02 6.161048e+03 
9.852600e-02 6.012738e+03 
9.973800e-02 5.873066e+03 
1.009000e-01 5.742827e+03 
1.020900e-01 5.614628e+03 
1.034000e-01 5.479586e+03 
1.046000e-01 5.361542e+03 
1.057200e-01 5.258948e+03 
1.069100e-01 5.154853e+03 
1.082500e-01 5.046885e+03 
1.093900e-01 4.961712e+03 
1.105400e-01 4.880368e+03 
1.116900e-01 4.806812e+03 
1.129600e-01 4.729662e+03 
1.142000e-01 4.661220e+03 
1.153300e-01 4.602034e+03 
1.166400e-01 4.537671e+03 
1.177800e-01 4.484711e+03 
1.190000e-01 4.430170e+03 
1.201200e-01 4.381581e+03 
1.213400e-01 4.329955e+03 
1.227100e-01 4.272092e+03 
1.238900e-01 4.222955e+03 
1.250700e-01 4.173048e+03 
1.263200e-01 4.120438e+03 
1.275500e-01 4.067709e+03 
1.287500e-01 4.016161e+03 
1.299900e-01 3.962073e+03 
1.311300e-01 3.912246e+03 
1.323500e-01 3.858272e+03 
1.335900e-01 3.803646e+03 
1.347100e-01 3.754034e+03 
1.359800e-01 3.698381e+03 
1.372100e-01 3.644433e+03 
1.384300e-01 3.591816e+03 
1.395700e-01 3.542959e+03 
1.407700e-01 3.492587e+03 
1.420300e-01 3.440471e+03 
1.432800e-01 3.389933e+03 
1.444500e-01 3.344019e+03 
1.456300e-01 3.298672e+03 
1.468900e-01 3.251993e+03 
1.480500e-01 3.210128e+03 
1.491700e-01 3.171045e+03 
1.503800e-01 3.130354e+03 
1.516400e-01 3.089140e+03 
1.528200e-01 3.052562e+03 
1.540200e-01 3.016085e+03 
1.551900e-01 2.982369e+03 
1.564300e-01 2.947604e+03 
1.576600e-01 2.914318e+03 
1.588700e-01 2.882832e+03 
1.600900e-01 2.851721e+03 
1.612700e-01 2.822920e+03 
1.625400e-01 2.792498e+03 
1.637600e-01 2.763972e+03 
1.649500e-01 2.736736e+03 
1.662200e-01 2.708169e+03 
1.674000e-01 2.681944e+03 
1.685000e-01 2.657905e+03 
1.697500e-01 2.630757e+03 
1.710300e-01 2.603170e+03 
1.722200e-01 2.577977e+03 
1.734400e-01 2.551867e+03 
1.746400e-01 2.526595e+03 
1.758700e-01 2.500901e+03 
1.770900e-01 2.475376e+03 
1.782700e-01 2.451102e+03 
1.794600e-01 2.426705e+03 
1.807000e-01 2.401496e+03 
1.819100e-01 2.377311e+03 
1.830100e-01 2.355451e+03 
1.842200e-01 2.331745e+03 
1.855000e-01 2.307089e+03 
1.867000e-01 2.284336e+03 
1.879200e-01 2.261579e+03 
1.890900e-01 2.240131e+03 
1.902800e-01 2.218815e+03 
1.915200e-01 2.196956e+03 
1.926900e-01 2.176724e+03 
1.939000e-01 2.156350e+03 
1.951700e-01 2.135306e+03 
1.963100e-01 2.116800e+03 
1.975100e-01 2.097861e+03 
1.987800e-01 2.078128e+03 
2.000100e-01 2.059405e+03 
2.012500e-01 2.041031e+03 
2.023400e-01 2.025110e+03 
2.036100e-01 2.006875e+03 
2.048900e-01 1.988967e+03 
2.060400e-01 1.973113e+03 
2.072200e-01 1.957081e+03 
2.084200e-01 1.941126e+03 
2.096900e-01 1.924487e+03 
2.109200e-01 1.908608e+03 
2.121100e-01 1.893504e+03 
2.132700e-01 1.878982e+03 
2.145200e-01 1.863552e+03 
2.157200e-01 1.848945e+03 
2.168800e-01 1.835015e+03 
2.180700e-01 1.820916e+03 
2.193400e-01 1.806072e+03 
2.206000e-01 1.791548e+03 
2.217500e-01 1.778469e+03 
2.229500e-01 1.765000e+03 
2.241400e-01 1.751822e+03 
2.253500e-01 1.738600e+03 
2.264900e-01 1.726302e+03 
2.277100e-01 1.713314e+03 
2.289900e-01 1.699877e+03 
2.301500e-01 1.687859e+03 
2.313600e-01 1.675482e+03 
2.325600e-01 1.663416e+03 
2.337700e-01 1.651403e+03 
2.350000e-01 1.639349e+03 
2.362000e-01 1.627773e+03 
2.374100e-01 1.616290e+03 
2.386500e-01 1.604671e+03 
2.399100e-01 1.593016e+03 
2.410400e-01 1.582760e+03 
2.422500e-01 1.571917e+03 
2.435000e-01 1.560854e+03 
2.447300e-01 1.550119e+03 
2.458700e-01 1.540345e+03 
2.470600e-01 1.530261e+03 
2.483300e-01 1.519630e+03 
2.495600e-01 1.509493e+03 
2.507600e-01 1.499766e+03 
2.519600e-01 1.490152e+03 
2.532200e-01 1.480179e+03 
2.543700e-01 1.471206e+03 
2.555500e-01 1.462118e+03 
2.568000e-01 1.452604e+03 
2.580100e-01 1.443502e+03 
2.592400e-01 1.434374e+03 
2.604100e-01 1.425797e+03 
2.616100e-01 1.417098e+03 
2.628400e-01 1.408283e+03 
2.640600e-01 1.399644e+03 
2.652200e-01 1.391522e+03 
2.664300e-01 1.383142e+03 
2.676500e-01 1.374787e+03 
2.688400e-01 1.366724e+03 
2.700700e-01 1.358478e+03 
2.712400e-01 1.350720e+03 
2.724800e-01 1.342588e+03 
2.736700e-01 1.334850e+03 
2.748800e-01 1.327048e+03 
2.761000e-01 1.319267e+03 
2.773200e-01 1.311570e+03 
2.785400e-01 1.303948e+03 
2.797000e-01 1.296762e+03 
2.808900e-01 1.289465e+03 
2.821400e-01 1.281882e+03 
2.833900e-01 1.274380e+03 
2.845500e-01 1.267464e+03 
2.857800e-01 1.260207e+03 
2.870300e-01 1.252909e+03 
2.882100e-01 1.246092e+03 
2.893900e-01 1.239325e+03 
2.906300e-01 1.232277e+03 
2.918900e-01 1.225190e+03 
2.930500e-01 1.218733e+03 
2.942500e-01 1.212115e+03 
2.954200e-01 1.205715e+03 
2.966500e-01 1.199053e+03 
2.978900e-01 1.192406e+03 
2.990400e-01 1.186302e+03 
3.002700e-01 1.179831e+03 
3.015100e-01 1.173369e+03 
3.026800e-01 1.167331e+03 
3.038500e-01 1.161351e+03 
3.050300e-01 1.155376e+03 
3.062600e-01 1.149206e+03 
3.075000e-01 1.143048e+03 
3.087000e-01 1.137145e+03 
3.099100e-01 1.131251e+03 
3.111200e-01 1.125415e+03 
3.123100e-01 1.119735e+03 
3.135300e-01 1.113967e+03 
3.147300e-01 1.108346e+03 
3.159900e-01 1.102502e+03 
3.171800e-01 1.097041e+03 
3.183700e-01 1.091635e+03 
3.196300e-01 1.085965e+03 
3.208400e-01 1.080572e+03 
3.220300e-01 1.075316e+03 
3.232000e-01 1.070209e+03 
3.244300e-01 1.064896e+03 
3.256700e-01 1.059589e+03 
3.269200e-01 1.054290e+03 
3.280800e-01 1.049416e+03 
3.292500e-01 1.044559e+03 
3.304800e-01 1.039504e+03 
3.317100e-01 1.034494e+03 
3.328900e-01 1.029730e+03 
3.340700e-01 1.025008e+03 
3.353600e-01 1.019913e+03 
3.365300e-01 1.015340e+03 
3.377100e-01 1.010767e+03 
3.389200e-01 1.006119e+03 
3.401600e-01 1.001398e+03 
3.413700e-01 9.968453e+02 
3.425300e-01 9.925282e+02 
3.437700e-01 9.879528e+02 
3.449800e-01 9.835269e+02 
3.461800e-01 9.791751e+02 
3.473600e-01 9.749388e+02 
3.485800e-01 9.706134e+02 
3.498100e-01 9.662899e+02 
3.510200e-01 9.620729e+02 
3.522000e-01 9.579947e+02 
3.533900e-01 9.539157e+02 
3.546400e-01 9.496946e+02 
3.558400e-01 9.456782e+02 
3.570600e-01 9.416286e+02 
3.582700e-01 9.376456e+02 
3.595000e-01 9.336305e+02 
3.607100e-01 9.297253e+02 
3.618900e-01 9.259573e+02 
3.631200e-01 9.220614e+02 
3.643200e-01 9.182917e+02 
3.655500e-01 9.144591e+02 
3.667300e-01 9.108119e+02 
3.679500e-01 9.071052e+02 
3.691900e-01 9.033685e+02 
3.703600e-01 8.998709e+02 
3.715700e-01 8.962820e+02 
3.727700e-01 8.927509e+02 
3.739900e-01 8.891916e+02 
3.752000e-01 8.856933e+02 
3.763900e-01 8.822797e+02 
3.775800e-01 8.788924e+02 
3.788200e-01 8.753906e+02 
3.800300e-01 8.720004e+02 
3.812100e-01 8.687105e+02 
3.824200e-01 8.653566e+02 
3.836100e-01 8.620834e+02 
3.848600e-01 8.586719e+02 
3.860400e-01 8.554762e+02 
3.872400e-01 8.522508e+02 
3.884600e-01 8.490328e+02 
3.896500e-01 8.459313e+02 
3.908700e-01 8.427755e+02 
3.920600e-01 8.397206e+02 
3.933100e-01 8.365360e+02 
3.945300e-01 8.334516e+02 
3.957200e-01 8.304552e+02 
3.969300e-01 8.274280e+02 
3.981700e-01 8.243492e+02 
3.993500e-01 8.214411e+02 
4.094840e-01 7.972239e+02 
4.272360e-01 7.584083e+02 
4.454600e-01 7.222185e+02 
4.630560e-01 6.903068e+02 
4.804610e-01 6.612779e+02 
4.980690e-01 6.342789e+02 
5.159230e-01 6.089992e+02 
5.317440e-01 5.882850e+02 
5.489640e-01 5.671934e+02 
5.671990e-01 5.464325e+02 
5.838690e-01 5.288101e+02 
6.018840e-01 5.110957e+02 
6.202330e-01 4.943307e+02 
6.379250e-01 4.791576e+02 
6.545410e-01 4.658163e+02 
6.714560e-01 4.530365e+02 
6.892080e-01 4.403801e+02 
7.066010e-01 4.286186e+02 
7.240540e-01 4.174933e+02 
7.420450e-01 4.067133e+02 
7.593780e-01 3.967383e+02 
7.764720e-01 3.874113e+02 
7.942840e-01 3.781784e+02 
8.116170e-01 3.695049e+02 
8.288310e-01 3.613145e+02 
8.462240e-01 3.533170e+02 
8.631980e-01 3.458320e+02 
8.810700e-01 3.382710e+02 
8.989410e-01 3.310191e+02 
9.166330e-01 3.240741e+02 
9.345640e-01 3.172351e+02 
9.515980e-01 3.109657e+02 
9.688720e-01 3.048415e+02 
9.865640e-01 2.987535e+02 
1.031870e+00 2.839713e+02 
1.063490e+00 2.743228e+02 
1.097920e+00 2.643239e+02 
1.134370e+00 2.543758e+02 
1.167730e+00 2.456723e+02 
1.203830e+00 2.367684e+02 
1.240470e+00 2.281889e+02 
1.275790e+00 2.202982e+02 
1.309140e+00 2.132258e+02 
1.342970e+00 2.063315e+02 
1.378420e+00 1.994808e+02 
1.413200e+00 1.930341e+02 
1.448110e+00 1.868625e+02 
1.484090e+00 1.807906e+02 
1.518820e+00 1.751921e+02 
1.552880e+00 1.698976e+02 
1.588630e+00 1.646078e+02 
1.623230e+00 1.597028e+02 
1.657720e+00 1.550117e+02 
1.692450e+00 1.505104e+02 
1.726400e+00 1.462469e+02 
1.762200e+00 1.419277e+02 
1.797880e+00 1.378041e+02 
1.833270e+00 1.338877e+02 
1.869070e+00 1.300701e+02 
1.903200e+00 1.265856e+02 
1.937740e+00 1.231879e+02 
1.973190e+00 1.198290e+02 
2.007440e+00 1.167021e+02 
2.042160e+00 1.136455e+02 
2.077900e+00 1.106141e+02 
2.112390e+00 1.078119e+02 
2.146220e+00 1.051342e+02 
2.181600e+00 1.024480e+02 
2.216930e+00 9.986126e+01 
2.250760e+00 9.746685e+01 
2.286500e+00 9.502170e+01 
2.321770e+00 9.269106e+01 
2.355950e+00 9.050611e+01 
2.391280e+00 8.831875e+01 
2.426240e+00 8.623492e+01 
2.460670e+00 8.424743e+01 
2.495640e+00 8.228517e+01 
2.531080e+00 8.037094e+01 
2.566220e+00 7.853143e+01 
2.600830e+00 7.677599e+01 
2.635080e+00 7.509217e+01 
2.670340e+00 7.340779e+01 
2.705970e+00 7.176576e+01 
2.740040e+00 7.024507e+01 
2.774520e+00 6.874051e+01 
2.809730e+00 6.725594e+01 
2.844390e+00 6.584039e+01 
2.879960e+00 6.442848e+01 
2.914860e+00 6.308256e+01 
2.949410e+00 6.179010e+01 
2.984440e+00 6.052168e+01 
3.019760e+00 5.927321e+01 
3.054730e+00 5.806969e+01 
3.089030e+00 5.692658e+01 
3.124060e+00 5.579143e+01 
3.159560e+00 5.467236e+01 
3.194710e+00 5.359827e+01 
3.229010e+00 5.257956e+01 
3.263320e+00 5.157947e+01 
3.297930e+00 5.059934e+01 
3.332830e+00 4.964007e+01 
3.368040e+00 4.869705e+01 
3.403300e+00 4.777720e+01 
3.438450e+00 4.688254e+01 
3.473060e+00 4.602446e+01 
3.508440e+00 4.517348e+01 
3.543110e+00 4.436107e+01 
3.577470e+00 4.357436e+01 
3.613040e+00 4.278153e+01 
3.648120e+00 4.202158e+01 
3.682910e+00 4.128461e+01 
3.718050e+00 4.055448e+01 
3.753320e+00 3.984268e+01 
3.787980e+00 3.916436e+01 
3.822290e+00 3.850683e+01 
3.857020e+00 3.785380e+01 
3.891920e+00 3.721394e+01 
3.926650e+00 3.659350e+01 
3.961970e+00 3.597709e+01 
3.997360e+00 3.537317e+01 
4.031670e+00 3.480167e+01 
4.066330e+00 3.423922e+01 
4.101420e+00 3.368273e+01 
4.136200e+00 3.314241e+01 
4.170810e+00 3.261676e+01 
4.206250e+00 3.209233e+01 
4.241580e+00 3.158158e+01 
4.276300e+00 3.108999e+01 
4.310970e+00 3.060936e+01 
4.346120e+00 3.013334e+01 
4.380600e+00 2.967759e+01 
4.414730e+00 2.923590e+01 
4.450350e+00 2.878376e+01 
4.485320e+00 2.834933e+01 
4.519810e+00 2.793100e+01 
4.555430e+00 2.750853e+01 
4.590870e+00 2.709747e+01 
4.625480e+00 2.670526e+01 
4.659910e+00 2.632291e+01 
4.695230e+00 2.593801e+01 
4.729960e+00 2.556707e+01 
4.764450e+00 2.520571e+01 
4.799530e+00 2.484498e+01 
4.834910e+00 2.448838e+01 
4.869700e+00 2.414758e+01 
4.904370e+00 2.381498e+01 
4.939450e+00 2.348473e+01 
4.973940e+00 2.316580e+01 
5.008430e+00 2.285285e+01 
5.043810e+00 2.253755e+01 
5.078840e+00 2.223107e+01 
5.113500e+00 2.193347e+01 
5.148890e+00 2.163815e+01 
5.184210e+00 2.134901e+01 
5.219060e+00 2.106840e+01 
5.253660e+00 2.079329e+01 
5.288570e+00 2.052070e+01 
5.323420e+00 2.025476e+01 
5.358440e+00 1.999373e+01 
5.393590e+00 1.973639e+01 
5.428310e+00 1.948643e+01 
5.462800e+00 1.924231e+01 
5.497640e+00 1.899997e+01 
5.532670e+00 1.876235e+01 
5.567280e+00 1.853217e+01 
5.602000e+00 1.830517e+01 
5.637270e+00 1.807711e+01 
5.672410e+00 1.785344e+01 
5.707020e+00 1.763684e+01 
5.742040e+00 1.742320e+01 
5.777430e+00 1.721129e+01 
5.812210e+00 1.700648e+01 
5.846820e+00 1.680572e+01 
5.881610e+00 1.660712e+01 
5.916510e+00 1.641111e+01 
5.951600e+00 1.621785e+01 
5.986560e+00 1.602868e+01 
6.021830e+00 1.584089e+01 
6.056490e+00 1.565971e+01 
6.091160e+00 1.548167e+01 
6.125830e+00 1.530640e+01 
6.161090e+00 1.513084e+01 
6.195760e+00 1.496072e+01 
6.230420e+00 1.479326e+01 
6.265690e+00 1.462550e+01 
6.300950e+00 1.446116e+01 
6.335620e+00 1.430203e+01 
6.370880e+00 1.414264e+01 
6.405550e+00 1.398874e+01 
6.440220e+00 1.383731e+01 
6.475480e+00 1.368559e+01 
6.510150e+00 1.353884e+01 
6.544810e+00 1.339475e+01 
6.580080e+00 1.325027e+01 
6.614750e+00 1.311032e+01 
6.649410e+00 1.297230e+01 
6.684080e+00 1.283618e+01 
6.719340e+00 1.269974e+01 
6.754010e+00 1.256768e+01 
6.788680e+00 1.243789e+01 
6.823940e+00 1.230776e+01 
6.859800e+00 1.217731e+01 
6.894470e+00 1.205342e+01 
6.929140e+00 1.193139e+01 
6.963800e+00 1.181108e+01 
6.999070e+00 1.169033e+01 
7.033730e+00 1.157316e+01 
7.068400e+00 1.145756e+01 
7.103660e+00 1.134159e+01 
7.138330e+00 1.122950e+01 
7.173600e+00 1.111782e+01 
7.208260e+00 1.100954e+01 
7.243530e+00 1.090083e+01 
7.277600e+00 1.079681e+01 
7.312860e+00 1.069023e+01 
7.348120e+00 1.058507e+01 
7.382790e+00 1.048303e+01 
7.417460e+00 1.038301e+01 
7.452720e+00 1.028298e+01 
7.487390e+00 1.018590e+01 
7.522650e+00 1.008844e+01 
7.557320e+00 9.993773e+00 
7.591990e+00 9.900285e+00 
7.627250e+00 9.806418e+00 
7.662510e+00 9.713752e+00 
7.697180e+00 9.624102e+00 
7.731850e+00 9.535689e+00 
7.766510e+00 9.448399e+00 
7.801180e+00 9.362162e+00 
7.836440e+00 9.275503e+00 
7.871110e+00 9.191322e+00 
7.906380e+00 9.106739e+00 
7.941040e+00 9.024641e+00 
7.976310e+00 8.942316e+00 
8.011570e+00 8.861261e+00 
8.046240e+00 8.782527e+00 
8.080900e+00 8.704757e+00 
8.115570e+00 8.627927e+00 
8.150830e+00 8.550859e+00 
8.185500e+00 8.475983e+00 
8.220770e+00 8.400717e+00 
8.255430e+00 8.327627e+00 
8.290100e+00 8.255541e+00 
8.324770e+00 8.184314e+00 
8.359430e+00 8.113933e+00 
8.394700e+00 8.043148e+00 
8.429960e+00 7.973306e+00 
8.464630e+00 7.905523e+00 
8.499890e+00 7.837380e+00 
8.534560e+00 7.771145e+00 
8.569200e+00 7.705718e+00 
