# Parameters:
# omega_b = 0.022500, omega_m = 0.137500, n_s = 0.950000, h = 69.033203, w = -1.000000,sigma_8 = 0.755000
# z = 0.869999
#
# k[1/Mpc] # P(k):
8.694000e-04 6.609974e+03 
2.077466e-03 1.393360e+04 
3.285532e-03 1.955298e+04 
4.493598e-03 2.380661e+04 
5.701664e-03 2.691112e+04 
6.909730e-03 2.906487e+04 
8.117797e-03 3.048333e+04 
9.325863e-03 3.127779e+04 
1.053393e-02 3.155727e+04 
1.174199e-02 3.142147e+04 
1.295006e-02 3.093421e+04 
1.415813e-02 3.018040e+04 
1.536619e-02 2.923126e+04 
1.657426e-02 2.813599e+04 
1.778233e-02 2.693580e+04 
1.899039e-02 2.569474e+04 
2.019846e-02 2.445130e+04 
2.140652e-02 2.323766e+04 
2.261459e-02 2.206743e+04 
2.382266e-02 2.095949e+04 
2.503072e-02 1.992691e+04 
2.623879e-02 1.897409e+04 
2.744685e-02 1.810260e+04 
2.865492e-02 1.731296e+04 
2.986299e-02 1.660134e+04 
3.100100e-02 1.600030e+04 
3.220400e-02 1.543193e+04 
3.288100e-02 1.514161e+04 
3.424300e-02 1.461352e+04 
3.555100e-02 1.416643e+04 
3.686000e-02 1.377034e+04 
3.795000e-02 1.347194e+04 
3.929100e-02 1.313811e+04 
4.039800e-02 1.288175e+04 
4.164000e-02 1.260833e+04 
4.294400e-02 1.232774e+04 
4.415000e-02 1.207221e+04 
4.542900e-02 1.179400e+04 
4.660900e-02 1.153414e+04 
4.782300e-02 1.125024e+04 
4.892900e-02 1.098488e+04 
5.031200e-02 1.063939e+04 
5.155900e-02 1.031421e+04 
5.238100e-02 1.009500e+04 
5.378200e-02 9.715404e+03 
5.513400e-02 9.343533e+03 
5.627600e-02 9.029056e+03 
5.735300e-02 8.735901e+03 
5.870100e-02 8.377142e+03 
5.988700e-02 8.072867e+03 
6.113500e-02 7.766295e+03 
6.225900e-02 7.504353e+03 
6.340100e-02 7.253842e+03 
6.480200e-02 6.968157e+03 
6.601100e-02 6.743034e+03 
6.725500e-02 6.531719e+03 
6.829100e-02 6.372859e+03 
6.958600e-02 6.191689e+03 
7.071100e-02 6.051274e+03 
7.192300e-02 5.915259e+03 
7.307400e-02 5.799374e+03 
7.412300e-02 5.703677e+03 
7.550400e-02 5.591172e+03 
7.663100e-02 5.507485e+03 
7.791200e-02 5.421136e+03 
7.912700e-02 5.344713e+03 
8.027600e-02 5.275291e+03 
8.138400e-02 5.209787e+03 
8.272200e-02 5.131079e+03 
8.406100e-02 5.051287e+03 
8.534100e-02 4.971634e+03 
8.653800e-02 4.893283e+03 
8.759800e-02 4.821637e+03 
8.900300e-02 4.722603e+03 
9.009000e-02 4.642237e+03 
9.113300e-02 4.561753e+03 
9.239600e-02 4.462594e+03 
9.358000e-02 4.367162e+03 
9.496100e-02 4.252951e+03 
9.608400e-02 4.160067e+03 
9.727500e-02 4.062321e+03 
9.852600e-02 3.959379e+03 
9.973800e-02 3.862321e+03 
1.009000e-01 3.771737e+03 
1.020900e-01 3.682468e+03 
1.034000e-01 3.588525e+03 
1.046000e-01 3.506498e+03 
1.057200e-01 3.435364e+03 
1.069100e-01 3.363318e+03 
1.082500e-01 3.288949e+03 
1.093900e-01 3.230569e+03 
1.105400e-01 3.174990e+03 
1.116900e-01 3.125234e+03 
1.129600e-01 3.073235e+03 
1.142000e-01 3.027563e+03 
1.153300e-01 2.988315e+03 
1.166400e-01 2.946027e+03 
1.177800e-01 2.911471e+03 
1.190000e-01 2.875998e+03 
1.201200e-01 2.844605e+03 
1.213400e-01 2.811287e+03 
1.227100e-01 2.773978e+03 
1.238900e-01 2.742253e+03 
1.250700e-01 2.709868e+03 
1.263200e-01 2.675605e+03 
1.275500e-01 2.640994e+03 
1.287500e-01 2.606995e+03 
1.299900e-01 2.571067e+03 
1.311300e-01 2.537774e+03 
1.323500e-01 2.501423e+03 
1.335900e-01 2.464423e+03 
1.347100e-01 2.430546e+03 
1.359800e-01 2.392395e+03 
1.372100e-01 2.355109e+03 
1.384300e-01 2.318656e+03 
1.395700e-01 2.284580e+03 
1.407700e-01 2.249448e+03 
1.420300e-01 2.212933e+03 
1.432800e-01 2.177548e+03 
1.444500e-01 2.145265e+03 
1.456300e-01 2.113401e+03 
1.468900e-01 2.080742e+03 
1.480500e-01 2.051504e+03 
1.491700e-01 2.024320e+03 
1.503800e-01 1.996157e+03 
1.516400e-01 1.967707e+03 
1.528200e-01 1.942736e+03 
1.540200e-01 1.917843e+03 
1.551900e-01 1.895143e+03 
1.564300e-01 1.871817e+03 
1.576600e-01 1.849646e+03 
1.588700e-01 1.828868e+03 
1.600900e-01 1.808353e+03 
1.612700e-01 1.789577e+03 
1.625400e-01 1.769745e+03 
1.637600e-01 1.751199e+03 
1.649500e-01 1.733520e+03 
1.662200e-01 1.714964e+03 
1.674000e-01 1.697851e+03 
1.685000e-01 1.682165e+03 
1.697500e-01 1.664358e+03 
1.710300e-01 1.646173e+03 
1.722200e-01 1.629568e+03 
1.734400e-01 1.612088e+03 
1.746400e-01 1.595162e+03 
1.758700e-01 1.577881e+03 
1.770900e-01 1.560565e+03 
1.782700e-01 1.544102e+03 
1.794600e-01 1.527453e+03 
1.807000e-01 1.510183e+03 
1.819100e-01 1.493620e+03 
1.830100e-01 1.478576e+03 
1.842200e-01 1.462253e+03 
1.855000e-01 1.445283e+03 
1.867000e-01 1.429612e+03 
1.879200e-01 1.413945e+03 
1.890900e-01 1.399194e+03 
1.902800e-01 1.384586e+03 
1.915200e-01 1.369611e+03 
1.926900e-01 1.355783e+03 
1.939000e-01 1.341949e+03 
1.951700e-01 1.327664e+03 
1.963100e-01 1.315131e+03 
1.975100e-01 1.302374e+03 
1.987800e-01 1.289086e+03 
2.000100e-01 1.276514e+03 
2.012500e-01 1.264255e+03 
2.023400e-01 1.253634e+03 
2.036100e-01 1.241486e+03 
2.048900e-01 1.229610e+03 
2.060400e-01 1.219098e+03 
2.072200e-01 1.208474e+03 
2.084200e-01 1.197938e+03 
2.096900e-01 1.186952e+03 
2.109200e-01 1.176470e+03 
2.121100e-01 1.166489e+03 
2.132700e-01 1.156895e+03 
2.145200e-01 1.146702e+03 
2.157200e-01 1.137041e+03 
2.168800e-01 1.127822e+03 
2.180700e-01 1.118492e+03 
2.193400e-01 1.108652e+03 
2.206000e-01 1.098986e+03 
2.217500e-01 1.090284e+03 
2.229500e-01 1.081324e+03 
2.241400e-01 1.072506e+03 
2.253500e-01 1.063658e+03 
2.264900e-01 1.055431e+03 
2.277100e-01 1.046723e+03 
2.289900e-01 1.037694e+03 
2.301500e-01 1.029620e+03 
2.313600e-01 1.021307e+03 
2.325600e-01 1.013165e+03 
2.337700e-01 1.005061e+03 
2.350000e-01 9.969309e+02 
2.362000e-01 9.891134e+02 
2.374100e-01 9.813453e+02 
2.386500e-01 9.734872e+02 
2.399100e-01 9.656069e+02 
2.410400e-01 9.586639e+02 
2.422500e-01 9.513240e+02 
2.435000e-01 9.438376e+02 
2.447300e-01 9.365760e+02 
2.458700e-01 9.299727e+02 
2.470600e-01 9.231613e+02 
2.483300e-01 9.159820e+02 
2.495600e-01 9.091383e+02 
2.507600e-01 9.025727e+02 
2.519600e-01 8.960852e+02 
2.532200e-01 8.893562e+02 
2.543700e-01 8.833165e+02 
2.555500e-01 8.772097e+02 
2.568000e-01 8.708171e+02 
2.580100e-01 8.647026e+02 
2.592400e-01 8.585857e+02 
2.604100e-01 8.528452e+02 
2.616100e-01 8.470241e+02 
2.628400e-01 8.411262e+02 
2.640600e-01 8.353581e+02 
2.652200e-01 8.299406e+02 
2.664300e-01 8.243522e+02 
2.676500e-01 8.187814e+02 
2.688400e-01 8.134154e+02 
2.700700e-01 8.079354e+02 
2.712400e-01 8.027801e+02 
2.724800e-01 7.973766e+02 
2.736700e-01 7.922479e+02 
2.748800e-01 7.870892e+02 
2.761000e-01 7.819449e+02 
2.773200e-01 7.768570e+02 
2.785400e-01 7.718232e+02 
2.797000e-01 7.670847e+02 
2.808900e-01 7.622744e+02 
2.821400e-01 7.572759e+02 
2.833900e-01 7.523319e+02 
2.845500e-01 7.477822e+02 
2.857800e-01 7.430083e+02 
2.870300e-01 7.382089e+02 
2.882100e-01 7.337259e+02 
2.893900e-01 7.292848e+02 
2.906300e-01 7.246642e+02 
2.918900e-01 7.200193e+02 
2.930500e-01 7.157870e+02 
2.942500e-01 7.114505e+02 
2.954200e-01 7.072585e+02 
2.966500e-01 7.028960e+02 
2.978900e-01 6.985435e+02 
2.990400e-01 6.945471e+02 
3.002700e-01 6.903123e+02 
3.015100e-01 6.860854e+02 
3.026800e-01 6.821367e+02 
3.038500e-01 6.782260e+02 
3.050300e-01 6.743197e+02 
3.062600e-01 6.702869e+02 
3.075000e-01 6.662619e+02 
3.087000e-01 6.624052e+02 
3.099100e-01 6.585541e+02 
3.111200e-01 6.547424e+02 
3.123100e-01 6.510330e+02 
3.135300e-01 6.472666e+02 
3.147300e-01 6.435974e+02 
3.159900e-01 6.397822e+02 
3.171800e-01 6.362179e+02 
3.183700e-01 6.326895e+02 
3.196300e-01 6.289893e+02 
3.208400e-01 6.254700e+02 
3.220300e-01 6.220410e+02 
3.232000e-01 6.187084e+02 
3.244300e-01 6.152404e+02 
3.256700e-01 6.117773e+02 
3.269200e-01 6.083193e+02 
3.280800e-01 6.051397e+02 
3.292500e-01 6.019715e+02 
3.304800e-01 5.986743e+02 
3.317100e-01 5.954076e+02 
3.328900e-01 5.923018e+02 
3.340700e-01 5.892234e+02 
3.353600e-01 5.859015e+02 
3.365300e-01 5.829206e+02 
3.377100e-01 5.799403e+02 
3.389200e-01 5.769111e+02 
3.401600e-01 5.738345e+02 
3.413700e-01 5.708708e+02 
3.425300e-01 5.680621e+02 
3.437700e-01 5.650856e+02 
3.449800e-01 5.622069e+02 
3.461800e-01 5.593765e+02 
3.473600e-01 5.566227e+02 
3.485800e-01 5.538135e+02 
3.498100e-01 5.510059e+02 
3.510200e-01 5.482678e+02 
3.522000e-01 5.456201e+02 
3.533900e-01 5.429721e+02 
3.546400e-01 5.402321e+02 
3.558400e-01 5.376252e+02 
3.570600e-01 5.349971e+02 
3.582700e-01 5.324124e+02 
3.595000e-01 5.298071e+02 
3.607100e-01 5.272754e+02 
3.618900e-01 5.248342e+02 
3.631200e-01 5.223104e+02 
3.643200e-01 5.198685e+02 
3.655500e-01 5.173862e+02 
3.667300e-01 5.150241e+02 
3.679500e-01 5.126189e+02 
3.691900e-01 5.101944e+02 
3.703600e-01 5.079252e+02 
3.715700e-01 5.055969e+02 
3.727700e-01 5.033064e+02 
3.739900e-01 5.010025e+02 
3.752000e-01 4.987470e+02 
3.763900e-01 4.965463e+02 
3.775800e-01 4.943627e+02 
3.788200e-01 4.921054e+02 
3.800300e-01 4.899202e+02 
3.812100e-01 4.878123e+02 
3.824200e-01 4.856719e+02 
3.836100e-01 4.835831e+02 
3.848600e-01 4.814061e+02 
3.860400e-01 4.793670e+02 
3.872400e-01 4.773091e+02 
3.884600e-01 4.752426e+02 
3.896500e-01 4.732459e+02 
3.908700e-01 4.712144e+02 
3.920600e-01 4.692480e+02 
3.933100e-01 4.671981e+02 
3.945300e-01 4.652129e+02 
3.957200e-01 4.632995e+02 
3.969300e-01 4.613708e+02 
3.981700e-01 4.594093e+02 
3.993500e-01 4.575566e+02 
4.094840e-01 4.421981e+02 
4.272360e-01 4.176250e+02 
4.454600e-01 3.949366e+02 
4.630560e-01 3.751060e+02 
4.804610e-01 3.572178e+02 
4.980690e-01 3.406436e+02 
5.159230e-01 3.252221e+02 
5.317440e-01 3.125954e+02 
5.489640e-01 2.998632e+02 
5.671990e-01 2.874284e+02 
5.838690e-01 2.769006e+02 
6.018840e-01 2.663519e+02 
6.202330e-01 2.564158e+02 
6.379250e-01 2.475124e+02 
6.545410e-01 2.397361e+02 
6.714560e-01 2.323151e+02 
6.892080e-01 2.250382e+02 
7.066010e-01 2.183658e+02 
7.240540e-01 2.120745e+02 
7.420450e-01 2.059927e+02 
7.593780e-01 2.004746e+02 
7.764720e-01 1.953281e+02 
7.942840e-01 1.902573e+02 
8.116170e-01 1.855841e+02 
8.288310e-01 1.811773e+02 
8.462240e-01 1.769368e+02 
8.631980e-01 1.729892e+02 
8.810700e-01 1.690214e+02 
8.989410e-01 1.652335e+02 
9.166330e-01 1.616433e+02 
9.345640e-01 1.581571e+02 
9.515980e-01 1.549755e+02 
9.688720e-01 1.518706e+02 
9.865640e-01 1.488072e+02 
1.031870e+00 1.414577e+02 
1.063490e+00 1.366936e+02 
1.097920e+00 1.318277e+02 
1.134370e+00 1.269747e+02 
1.167730e+00 1.227942e+02 
1.203830e+00 1.185088e+02 
1.240470e+00 1.144072e+02 
1.275790e+00 1.106493e+02 
1.309140e+00 1.072855e+02 
1.342970e+00 1.040151e+02 
1.378420e+00 1.007604e+02 
1.413200e+00 9.770992e+01 
1.448110e+00 9.478010e+01 
1.484090e+00 9.190378e+01 
1.518820e+00 8.924170e+01 
1.552880e+00 8.674047e+01 
1.588630e+00 8.422068e+01 
1.623230e+00 8.188753e+01 
1.657720e+00 7.965341e+01 
1.692450e+00 7.749865e+01 
1.726400e+00 7.546183e+01 
1.762200e+00 7.339644e+01 
1.797880e+00 7.142214e+01 
1.833270e+00 6.953459e+01 
1.869070e+00 6.770054e+01 
1.903200e+00 6.601543e+01 
1.937740e+00 6.437004e+01 
1.973190e+00 6.273999e+01 
2.007440e+00 6.122177e+01 
2.042160e+00 5.973753e+01 
2.077900e+00 5.825796e+01 
2.112390e+00 5.688352e+01 
2.146220e+00 5.557293e+01 
2.181600e+00 5.425049e+01 
2.216930e+00 5.297464e+01 
2.250760e+00 5.178991e+01 
2.286500e+00 5.057780e+01 
2.321770e+00 4.942341e+01 
2.355950e+00 4.834185e+01 
2.391280e+00 4.725380e+01 
2.426240e+00 4.621029e+01 
2.460670e+00 4.521424e+01 
2.495640e+00 4.423380e+01 
2.531080e+00 4.327067e+01 
2.566220e+00 4.234218e+01 
2.600830e+00 4.145541e+01 
2.635080e+00 4.060498e+01 
2.670340e+00 3.975042e+01 
2.705970e+00 3.891393e+01 
2.740040e+00 3.813798e+01 
2.774520e+00 3.737312e+01 
2.809730e+00 3.661363e+01 
2.844390e+00 3.588723e+01 
2.879960e+00 3.516176e+01 
2.914860e+00 3.446917e+01 
2.949410e+00 3.380248e+01 
2.984440e+00 3.314360e+01 
3.019760e+00 3.249831e+01 
3.054730e+00 3.187758e+01 
3.089030e+00 3.128143e+01 
3.124060e+00 3.068951e+01 
3.159560e+00 3.010621e+01 
3.194710e+00 2.954188e+01 
3.229010e+00 2.900545e+01 
3.263320e+00 2.848248e+01 
3.297930e+00 2.796846e+01 
3.332830e+00 2.746262e+01 
3.368040e+00 2.696481e+01 
3.403300e+00 2.647878e+01 
3.438450e+00 2.600562e+01 
3.473060e+00 2.555155e+01 
3.508440e+00 2.509897e+01 
3.543110e+00 2.466648e+01 
3.577470e+00 2.424629e+01 
3.613040e+00 2.382219e+01 
3.648120e+00 2.341419e+01 
3.682910e+00 2.301918e+01 
3.718050e+00 2.262920e+01 
3.753320e+00 2.224697e+01 
3.787980e+00 2.187980e+01 
3.822290e+00 2.152489e+01 
3.857020e+00 2.117397e+01 
3.891920e+00 2.082893e+01 
3.926650e+00 2.049230e+01 
3.961970e+00 2.015800e+01 
3.997360e+00 1.983096e+01 
4.031670e+00 1.952100e+01 
4.066330e+00 1.921424e+01 
4.101420e+00 1.891070e+01 
4.136200e+00 1.861654e+01 
4.170810e+00 1.833029e+01 
4.206250e+00 1.804304e+01 
4.241580e+00 1.776292e+01 
4.276300e+00 1.749346e+01 
4.310970e+00 1.723008e+01 
4.346120e+00 1.696873e+01 
4.380600e+00 1.671774e+01 
4.414730e+00 1.647446e+01 
4.450350e+00 1.622563e+01 
4.485320e+00 1.598648e+01 
4.519810e+00 1.575540e+01 
4.555430e+00 1.552164e+01 
4.590870e+00 1.529389e+01 
4.625480e+00 1.507601e+01 
4.659910e+00 1.486357e+01 
4.695230e+00 1.464996e+01 
4.729960e+00 1.444409e+01 
4.764450e+00 1.424366e+01 
4.799530e+00 1.404380e+01 
4.834910e+00 1.384620e+01 
4.869700e+00 1.365576e+01 
4.904370e+00 1.346962e+01 
4.939450e+00 1.328491e+01 
4.973940e+00 1.310685e+01 
5.008430e+00 1.293210e+01 
5.043810e+00 1.275627e+01 
5.078840e+00 1.258549e+01 
5.113500e+00 1.241964e+01 
5.148890e+00 1.225360e+01 
5.184210e+00 1.209096e+01 
5.219060e+00 1.193346e+01 
5.253660e+00 1.178004e+01 
5.288570e+00 1.162800e+01 
5.323420e+00 1.147905e+01 
5.358440e+00 1.133214e+01 
5.393590e+00 1.118729e+01 
5.428310e+00 1.104689e+01 
5.462800e+00 1.090990e+01 
5.497640e+00 1.077391e+01 
5.532670e+00 1.063970e+01 
5.567280e+00 1.050942e+01 
5.602000e+00 1.038093e+01 
5.637270e+00 1.025283e+01 
5.672410e+00 1.012742e+01 
5.707020e+00 1.000596e+01 
5.742040e+00 9.885302e+00 
5.777430e+00 9.765449e+00 
5.812210e+00 9.649606e+00 
5.846820e+00 9.536377e+00 
5.881610e+00 9.424442e+00 
5.916510e+00 9.313964e+00 
5.951600e+00 9.204887e+00 
5.986560e+00 9.098050e+00 
6.021830e+00 8.991989e+00 
6.056490e+00 8.889560e+00 
6.091160e+00 8.788826e+00 
6.125830e+00 8.689656e+00 
6.161090e+00 8.590450e+00 
6.195760e+00 8.494589e+00 
6.230420e+00 8.400219e+00 
6.265690e+00 8.305670e+00 
6.300950e+00 8.212878e+00 
6.335620e+00 8.123021e+00 
6.370880e+00 8.033014e+00 
6.405550e+00 7.946018e+00 
6.440220e+00 7.860383e+00 
6.475480e+00 7.774583e+00 
6.510150e+00 7.691539e+00 
6.544810e+00 7.609897e+00 
6.580080e+00 7.528033e+00 
6.614750e+00 7.448733e+00 
6.649410e+00 7.370837e+00 
6.684080e+00 7.294080e+00 
6.719340e+00 7.217135e+00 
6.754010e+00 7.142622e+00 
6.788680e+00 7.069310e+00 
6.823940e+00 6.995803e+00 
6.859800e+00 6.922114e+00 
6.894470e+00 6.852051e+00 
6.929140e+00 6.783018e+00 
6.963800e+00 6.714952e+00 
6.999070e+00 6.646656e+00 
7.033730e+00 6.580665e+00 
7.068400e+00 6.515548e+00 
7.103660e+00 6.450223e+00 
7.138330e+00 6.386938e+00 
7.173600e+00 6.323590e+00 
7.208260e+00 6.262170e+00 
7.243530e+00 6.200503e+00 
7.277600e+00 6.141836e+00 
7.312860e+00 6.082023e+00 
7.348120e+00 6.023003e+00 
7.382790e+00 5.965729e+00 
7.417460e+00 5.909328e+00 
7.452720e+00 5.852779e+00 
7.487390e+00 5.797893e+00 
7.522650e+00 5.742791e+00 
7.557320e+00 5.689446e+00 
7.591990e+00 5.636828e+00 
7.627250e+00 5.583992e+00 
7.662510e+00 5.531829e+00 
7.697180e+00 5.481327e+00 
7.731850e+00 5.431508e+00 
7.766510e+00 5.382317e+00 
7.801180e+00 5.333718e+00 
7.836440e+00 5.285026e+00 
7.871110e+00 5.237815e+00 
7.906380e+00 5.190374e+00 
7.941040e+00 5.144322e+00 
7.976310e+00 5.098100e+00 
8.011570e+00 5.052540e+00 
8.046240e+00 5.008281e+00 
8.080900e+00 4.964560e+00 
8.115570e+00 4.921384e+00 
8.150830e+00 4.878142e+00 
8.185500e+00 4.836126e+00 
8.220770e+00 4.793887e+00 
8.255430e+00 4.752866e+00 
8.290100e+00 4.712445e+00 
8.324770e+00 4.672505e+00 
8.359430e+00 4.633036e+00 
8.394700e+00 4.593337e+00 
8.429960e+00 4.554193e+00 
8.464630e+00 4.516232e+00 
8.499890e+00 4.478064e+00 
8.534560e+00 4.440962e+00 
8.569200e+00 4.404308e+00 
