# Parameters:
# omega_b = 0.022500, omega_m = 0.137500, n_s = 0.950000, h = 69.033203, w = -1.000000,sigma_8 = 0.755000
# z = 0.810000
#
# k[1/Mpc] # P(k):
8.694000e-04 6.979520e+03 
2.077466e-03 1.471259e+04 
3.285532e-03 2.064648e+04 
4.493598e-03 2.513778e+04 
5.701664e-03 2.841542e+04 
6.909730e-03 3.068925e+04 
8.117797e-03 3.218649e+04 
9.325863e-03 3.302492e+04 
1.053393e-02 3.331952e+04 
1.174199e-02 3.317570e+04 
1.295006e-02 3.266075e+04 
1.415813e-02 3.186435e+04 
1.536619e-02 3.086179e+04 
1.657426e-02 2.970504e+04 
1.778233e-02 2.843817e+04 
1.899039e-02 2.712845e+04 
2.019846e-02 2.581596e+04 
2.140652e-02 2.453455e+04 
2.261459e-02 2.329888e+04 
2.382266e-02 2.212899e+04 
2.503072e-02 2.103870e+04 
2.623879e-02 2.003275e+04 
2.744685e-02 1.911259e+04 
2.865492e-02 1.827893e+04 
2.986299e-02 1.752757e+04 
3.100100e-02 1.689308e+04 
3.220400e-02 1.629296e+04 
3.288100e-02 1.598645e+04 
3.424300e-02 1.542883e+04 
3.555100e-02 1.495673e+04 
3.686000e-02 1.453839e+04 
3.795000e-02 1.422316e+04 
3.929100e-02 1.387051e+04 
4.039800e-02 1.359962e+04 
4.164000e-02 1.331070e+04 
4.294400e-02 1.301422e+04 
4.415000e-02 1.274423e+04 
4.542900e-02 1.245030e+04 
4.660900e-02 1.217580e+04 
4.782300e-02 1.187606e+04 
4.892900e-02 1.159591e+04 
5.031200e-02 1.123135e+04 
5.155900e-02 1.088832e+04 
5.238100e-02 1.065713e+04 
5.378200e-02 1.025689e+04 
5.513400e-02 9.864915e+03 
5.627600e-02 9.533501e+03 
5.735300e-02 9.224589e+03 
5.870100e-02 8.846589e+03 
5.988700e-02 8.526013e+03 
6.113500e-02 8.203055e+03 
6.225900e-02 7.927112e+03 
6.340100e-02 7.663185e+03 
6.480200e-02 7.362148e+03 
6.601100e-02 7.124908e+03 
6.725500e-02 6.902160e+03 
6.829100e-02 6.734638e+03 
6.958600e-02 6.543565e+03 
7.071100e-02 6.395402e+03 
7.192300e-02 6.251787e+03 
7.307400e-02 6.129364e+03 
7.412300e-02 6.028226e+03 
7.550400e-02 5.909235e+03 
7.663100e-02 5.820674e+03 
7.791200e-02 5.729250e+03 
7.912700e-02 5.648282e+03 
8.027600e-02 5.574732e+03 
8.138400e-02 5.505343e+03 
8.272200e-02 5.421989e+03 
8.406100e-02 5.337543e+03 
8.534100e-02 5.253316e+03 
8.653800e-02 5.170534e+03 
8.759800e-02 5.094883e+03 
8.900300e-02 4.990385e+03 
9.009000e-02 4.905654e+03 
9.113300e-02 4.820858e+03 
9.239600e-02 4.716436e+03 
9.358000e-02 4.616001e+03 
9.496100e-02 4.495859e+03 
9.608400e-02 4.398178e+03 
9.727500e-02 4.295399e+03 
9.852600e-02 4.187220e+03 
9.973800e-02 4.085232e+03 
1.009000e-01 3.990051e+03 
1.020900e-01 3.896268e+03 
1.034000e-01 3.797560e+03 
1.046000e-01 3.711357e+03 
1.057200e-01 3.636587e+03 
1.069100e-01 3.560845e+03 
1.082500e-01 3.482623e+03 
1.093900e-01 3.421177e+03 
1.105400e-01 3.362652e+03 
1.116900e-01 3.310201e+03 
1.129600e-01 3.255362e+03 
1.142000e-01 3.207133e+03 
1.153300e-01 3.165659e+03 
1.166400e-01 3.120925e+03 
1.177800e-01 3.084335e+03 
1.190000e-01 3.046759e+03 
1.201200e-01 3.013486e+03 
1.213400e-01 2.978169e+03 
1.227100e-01 2.938601e+03 
1.238900e-01 2.904959e+03 
1.250700e-01 2.870639e+03 
1.263200e-01 2.834345e+03 
1.275500e-01 2.797717e+03 
1.287500e-01 2.761758e+03 
1.299900e-01 2.723796e+03 
1.311300e-01 2.688645e+03 
1.323500e-01 2.650306e+03 
1.335900e-01 2.611306e+03 
1.347100e-01 2.575631e+03 
1.359800e-01 2.535476e+03 
1.372100e-01 2.496276e+03 
1.384300e-01 2.457963e+03 
1.395700e-01 2.422179e+03 
1.407700e-01 2.385287e+03 
1.420300e-01 2.346973e+03 
1.432800e-01 2.309840e+03 
1.444500e-01 2.275969e+03 
1.456300e-01 2.242535e+03 
1.468900e-01 2.208251e+03 
1.480500e-01 2.177553e+03 
1.491700e-01 2.148996e+03 
1.503800e-01 2.119393e+03 
1.516400e-01 2.089478e+03 
1.528200e-01 2.063186e+03 
1.540200e-01 2.036975e+03 
1.551900e-01 2.013028e+03 
1.564300e-01 1.988408e+03 
1.576600e-01 1.964986e+03 
1.588700e-01 1.943010e+03 
1.600900e-01 1.921309e+03 
1.612700e-01 1.901417e+03 
1.625400e-01 1.880407e+03 
1.637600e-01 1.860752e+03 
1.649500e-01 1.842014e+03 
1.662200e-01 1.822348e+03 
1.674000e-01 1.804224e+03 
1.685000e-01 1.787611e+03 
1.697500e-01 1.768767e+03 
1.710300e-01 1.749535e+03 
1.722200e-01 1.731974e+03 
1.734400e-01 1.713526e+03 
1.746400e-01 1.695663e+03 
1.758700e-01 1.677436e+03 
1.770900e-01 1.659194e+03 
1.782700e-01 1.641849e+03 
1.794600e-01 1.624321e+03 
1.807000e-01 1.606147e+03 
1.819100e-01 1.588718e+03 
1.830100e-01 1.572894e+03 
1.842200e-01 1.555726e+03 
1.855000e-01 1.537877e+03 
1.867000e-01 1.521396e+03 
1.879200e-01 1.504917e+03 
1.890900e-01 1.489401e+03 
1.902800e-01 1.474027e+03 
1.915200e-01 1.458266e+03 
1.926900e-01 1.443708e+03 
1.939000e-01 1.429130e+03 
1.951700e-01 1.414076e+03 
1.963100e-01 1.400864e+03 
1.975100e-01 1.387408e+03 
1.987800e-01 1.373391e+03 
2.000100e-01 1.360123e+03 
2.012500e-01 1.347173e+03 
2.023400e-01 1.335954e+03 
2.036100e-01 1.323120e+03 
2.048900e-01 1.310568e+03 
2.060400e-01 1.299457e+03 
2.072200e-01 1.288226e+03 
2.084200e-01 1.277085e+03 
2.096900e-01 1.265467e+03 
2.109200e-01 1.254382e+03 
2.121100e-01 1.243828e+03 
2.132700e-01 1.233683e+03 
2.145200e-01 1.222904e+03 
2.157200e-01 1.212691e+03 
2.168800e-01 1.202947e+03 
2.180700e-01 1.193086e+03 
2.193400e-01 1.182687e+03 
2.206000e-01 1.172476e+03 
2.217500e-01 1.163283e+03 
2.229500e-01 1.153817e+03 
2.241400e-01 1.144507e+03 
2.253500e-01 1.135167e+03 
2.264900e-01 1.126480e+03 
2.277100e-01 1.117290e+03 
2.289900e-01 1.107763e+03 
2.301500e-01 1.099243e+03 
2.313600e-01 1.090471e+03 
2.325600e-01 1.081884e+03 
2.337700e-01 1.073336e+03 
2.350000e-01 1.064761e+03 
2.362000e-01 1.056515e+03 
2.374100e-01 1.048320e+03 
2.386500e-01 1.040031e+03 
2.399100e-01 1.031717e+03 
2.410400e-01 1.024395e+03 
2.422500e-01 1.016654e+03 
2.435000e-01 1.008758e+03 
2.447300e-01 1.001099e+03 
2.458700e-01 9.941313e+02 
2.470600e-01 9.869439e+02 
2.483300e-01 9.793682e+02 
2.495600e-01 9.721462e+02 
2.507600e-01 9.652173e+02 
2.519600e-01 9.583708e+02 
2.532200e-01 9.512690e+02 
2.543700e-01 9.448929e+02 
2.555500e-01 9.384447e+02 
2.568000e-01 9.316944e+02 
2.580100e-01 9.252378e+02 
2.592400e-01 9.187768e+02 
2.604100e-01 9.127126e+02 
2.616100e-01 9.065631e+02 
2.628400e-01 9.003322e+02 
2.640600e-01 8.942380e+02 
2.652200e-01 8.885140e+02 
2.664300e-01 8.826092e+02 
2.676500e-01 8.767228e+02 
2.688400e-01 8.710521e+02 
2.700700e-01 8.652603e+02 
2.712400e-01 8.598116e+02 
2.724800e-01 8.541004e+02 
2.736700e-01 8.486788e+02 
2.748800e-01 8.432247e+02 
2.761000e-01 8.377856e+02 
2.773200e-01 8.324059e+02 
2.785400e-01 8.270831e+02 
2.797000e-01 8.220719e+02 
2.808900e-01 8.169845e+02 
2.821400e-01 8.116981e+02 
2.833900e-01 8.064691e+02 
2.845500e-01 8.016569e+02 
2.857800e-01 7.966073e+02 
2.870300e-01 7.915308e+02 
2.882100e-01 7.867888e+02 
2.893900e-01 7.820913e+02 
2.906300e-01 7.772040e+02 
2.918900e-01 7.722908e+02 
2.930500e-01 7.678140e+02 
2.942500e-01 7.632267e+02 
2.954200e-01 7.587917e+02 
2.966500e-01 7.541761e+02 
2.978900e-01 7.495710e+02 
2.990400e-01 7.453426e+02 
3.002700e-01 7.408624e+02 
3.015100e-01 7.363907e+02 
3.026800e-01 7.322133e+02 
3.038500e-01 7.280759e+02 
3.050300e-01 7.239431e+02 
3.062600e-01 7.196765e+02 
3.075000e-01 7.154181e+02 
3.087000e-01 7.113376e+02 
3.099100e-01 7.072629e+02 
3.111200e-01 7.032299e+02 
3.123100e-01 6.993052e+02 
3.135300e-01 6.953200e+02 
3.147300e-01 6.914376e+02 
3.159900e-01 6.874005e+02 
3.171800e-01 6.836286e+02 
3.183700e-01 6.798945e+02 
3.196300e-01 6.759784e+02 
3.208400e-01 6.722536e+02 
3.220300e-01 6.686244e+02 
3.232000e-01 6.650978e+02 
3.244300e-01 6.614279e+02 
3.256700e-01 6.577631e+02 
3.269200e-01 6.541036e+02 
3.280800e-01 6.507387e+02 
3.292500e-01 6.473857e+02 
3.304800e-01 6.438960e+02 
3.317100e-01 6.404384e+02 
3.328900e-01 6.371512e+02 
3.340700e-01 6.338928e+02 
3.353600e-01 6.303768e+02 
3.365300e-01 6.272218e+02 
3.377100e-01 6.240673e+02 
3.389200e-01 6.208609e+02 
3.401600e-01 6.176043e+02 
3.413700e-01 6.144665e+02 
3.425300e-01 6.114922e+02 
3.437700e-01 6.083403e+02 
3.449800e-01 6.052917e+02 
3.461800e-01 6.022944e+02 
3.473600e-01 5.993781e+02 
3.485800e-01 5.964035e+02 
3.498100e-01 5.934305e+02 
3.510200e-01 5.905309e+02 
3.522000e-01 5.877270e+02 
3.533900e-01 5.849228e+02 
3.546400e-01 5.820205e+02 
3.558400e-01 5.792590e+02 
3.570600e-01 5.764751e+02 
3.582700e-01 5.737370e+02 
3.595000e-01 5.709771e+02 
3.607100e-01 5.682948e+02 
3.618900e-01 5.657081e+02 
3.631200e-01 5.630340e+02 
3.643200e-01 5.604465e+02 
3.655500e-01 5.578161e+02 
3.667300e-01 5.553131e+02 
3.679500e-01 5.527633e+02 
3.691900e-01 5.501930e+02 
3.703600e-01 5.477873e+02 
3.715700e-01 5.453190e+02 
3.727700e-01 5.428905e+02 
3.739900e-01 5.404478e+02 
3.752000e-01 5.380561e+02 
3.763900e-01 5.357225e+02 
3.775800e-01 5.334070e+02 
3.788200e-01 5.310132e+02 
3.800300e-01 5.286959e+02 
3.812100e-01 5.264599e+02 
3.824200e-01 5.241890e+02 
3.836100e-01 5.219728e+02 
3.848600e-01 5.196630e+02 
3.860400e-01 5.174995e+02 
3.872400e-01 5.153160e+02 
3.884600e-01 5.131231e+02 
3.896500e-01 5.110040e+02 
3.908700e-01 5.088481e+02 
3.920600e-01 5.067610e+02 
3.933100e-01 5.045855e+02 
3.945300e-01 5.024785e+02 
3.957200e-01 5.004467e+02 
3.969300e-01 4.983985e+02 
3.981700e-01 4.963153e+02 
3.993500e-01 4.943477e+02 
4.094840e-01 4.780340e+02 
4.272360e-01 4.519098e+02 
4.454600e-01 4.277648e+02 
4.630560e-01 4.066430e+02 
4.804610e-01 3.875753e+02 
4.980690e-01 3.698956e+02 
5.159230e-01 3.534354e+02 
5.317440e-01 3.399505e+02 
5.489640e-01 3.263450e+02 
5.671990e-01 3.130497e+02 
5.838690e-01 3.017857e+02 
6.018840e-01 2.904928e+02 
6.202330e-01 2.798484e+02 
6.379250e-01 2.703030e+02 
6.545410e-01 2.619583e+02 
6.714560e-01 2.539886e+02 
6.892080e-01 2.461687e+02 
7.066010e-01 2.389900e+02 
7.240540e-01 2.322145e+02 
7.420450e-01 2.256581e+02 
7.593780e-01 2.197031e+02 
7.764720e-01 2.141435e+02 
7.942840e-01 2.086601e+02 
8.116170e-01 2.036002e+02 
8.288310e-01 1.988234e+02 
8.462240e-01 1.942223e+02 
8.631980e-01 1.899342e+02 
8.810700e-01 1.856199e+02 
8.989410e-01 1.814966e+02 
9.166330e-01 1.775846e+02 
9.345640e-01 1.737816e+02 
9.515980e-01 1.703075e+02 
9.688720e-01 1.669138e+02 
9.865640e-01 1.635626e+02 
1.031870e+00 1.555118e+02 
1.063490e+00 1.502814e+02 
1.097920e+00 1.449378e+02 
1.134370e+00 1.395970e+02 
1.167730e+00 1.349924e+02 
1.203830e+00 1.302687e+02 
1.240470e+00 1.257451e+02 
1.275790e+00 1.215956e+02 
1.309140e+00 1.178799e+02 
1.342970e+00 1.142642e+02 
1.378420e+00 1.106662e+02 
1.413200e+00 1.072932e+02 
1.448110e+00 1.040510e+02 
1.484090e+00 1.008691e+02 
1.518820e+00 9.792118e+01 
1.552880e+00 9.515410e+01 
1.588630e+00 9.236418e+01 
1.623230e+00 8.978223e+01 
1.657720e+00 8.730946e+01 
1.692450e+00 8.492717e+01 
1.726400e+00 8.267241e+01 
1.762200e+00 8.038622e+01 
1.797880e+00 7.820271e+01 
1.833270e+00 7.611364e+01 
1.869070e+00 7.408591e+01 
1.903200e+00 7.222279e+01 
1.937740e+00 7.040358e+01 
1.973190e+00 6.860158e+01 
2.007440e+00 6.692386e+01 
2.042160e+00 6.528516e+01 
2.077900e+00 6.365026e+01 
2.112390e+00 6.213333e+01 
2.146220e+00 6.068517e+01 
2.181600e+00 5.922602e+01 
2.216930e+00 5.781859e+01 
2.250760e+00 5.651078e+01 
2.286500e+00 5.517283e+01 
2.321770e+00 5.390024e+01 
2.355950e+00 5.270957e+01 
2.391280e+00 5.151044e+01 
2.426240e+00 5.036049e+01 
2.460670e+00 4.926294e+01 
2.495640e+00 4.818275e+01 
2.531080e+00 4.712356e+01 
2.566220e+00 4.610143e+01 
2.600830e+00 4.512563e+01 
2.635080e+00 4.419070e+01 
2.670340e+00 4.325016e+01 
2.705970e+00 4.233050e+01 
2.740040e+00 4.147800e+01 
2.774520e+00 4.063793e+01 
2.809730e+00 3.980389e+01 
2.844390e+00 3.900631e+01 
2.879960e+00 3.820988e+01 
2.914860e+00 3.744972e+01 
2.949410e+00 3.671810e+01 
2.984440e+00 3.599525e+01 
3.019760e+00 3.528796e+01 
3.054730e+00 3.460794e+01 
3.089030e+00 3.395431e+01 
3.124060e+00 3.330574e+01 
3.159560e+00 3.266723e+01 
3.194710e+00 3.204895e+01 
3.229010e+00 3.146119e+01 
3.263320e+00 3.088903e+01 
3.297930e+00 3.032672e+01 
3.332830e+00 2.977344e+01 
3.368040e+00 2.922905e+01 
3.403300e+00 2.869763e+01 
3.438450e+00 2.818036e+01 
3.473060e+00 2.768400e+01 
3.508440e+00 2.718995e+01 
3.543110e+00 2.671780e+01 
3.577470e+00 2.625871e+01 
3.613040e+00 2.579553e+01 
3.648120e+00 2.535040e+01 
3.682910e+00 2.491948e+01 
3.718050e+00 2.449409e+01 
3.753320e+00 2.407717e+01 
3.787980e+00 2.367668e+01 
3.822290e+00 2.328980e+01 
3.857020e+00 2.290761e+01 
3.891920e+00 2.253170e+01 
3.926650e+00 2.216470e+01 
3.961970e+00 2.180037e+01 
3.997360e+00 2.144426e+01 
4.031670e+00 2.110678e+01 
4.066330e+00 2.077282e+01 
4.101420e+00 2.044238e+01 
4.136200e+00 2.012247e+01 
4.170810e+00 1.981119e+01 
4.206250e+00 1.949880e+01 
4.241580e+00 1.919419e+01 
4.276300e+00 1.890125e+01 
4.310970e+00 1.861496e+01 
4.346120e+00 1.833093e+01 
4.380600e+00 1.805821e+01 
4.414730e+00 1.779388e+01 
4.450350e+00 1.752359e+01 
4.485320e+00 1.726384e+01 
4.519810e+00 1.701292e+01 
4.555430e+00 1.675912e+01 
4.590870e+00 1.651188e+01 
4.625480e+00 1.627540e+01 
4.659910e+00 1.604484e+01 
4.695230e+00 1.581307e+01 
4.729960e+00 1.558973e+01 
4.764450e+00 1.537233e+01 
4.799530e+00 1.515559e+01 
4.834910e+00 1.494132e+01 
4.869700e+00 1.473484e+01 
4.904370e+00 1.453305e+01 
4.939450e+00 1.433283e+01 
4.973940e+00 1.413984e+01 
5.008430e+00 1.395046e+01 
5.043810e+00 1.375996e+01 
5.078840e+00 1.357496e+01 
5.113500e+00 1.339531e+01 
5.148890e+00 1.321547e+01 
5.184210e+00 1.303932e+01 
5.219060e+00 1.286876e+01 
5.253660e+00 1.270265e+01 
5.288570e+00 1.253806e+01 
5.323420e+00 1.237681e+01 
5.358440e+00 1.221779e+01 
5.393590e+00 1.206102e+01 
5.428310e+00 1.190907e+01 
5.462800e+00 1.176085e+01 
5.497640e+00 1.161369e+01 
5.532670e+00 1.146850e+01 
5.567280e+00 1.132757e+01 
5.602000e+00 1.118859e+01 
5.637270e+00 1.105003e+01 
5.672410e+00 1.091439e+01 
5.707020e+00 1.078302e+01 
5.742040e+00 1.065256e+01 
5.777430e+00 1.052297e+01 
5.812210e+00 1.039773e+01 
5.846820e+00 1.027531e+01 
5.881610e+00 1.015430e+01 
5.916510e+00 1.003487e+01 
5.951600e+00 9.916976e+00 
5.986560e+00 9.801516e+00 
6.021830e+00 9.686896e+00 
6.056490e+00 9.576207e+00 
6.091160e+00 9.467353e+00 
6.125830e+00 9.360191e+00 
6.161090e+00 9.252995e+00 
6.195760e+00 9.149416e+00 
6.230420e+00 9.047452e+00 
6.265690e+00 8.945297e+00 
6.300950e+00 8.845068e+00 
6.335620e+00 8.748012e+00 
6.370880e+00 8.650794e+00 
6.405550e+00 8.556826e+00 
6.440220e+00 8.464327e+00 
6.475480e+00 8.371652e+00 
6.510150e+00 8.281963e+00 
6.544810e+00 8.193806e+00 
6.580080e+00 8.105410e+00 
6.614750e+00 8.019784e+00 
6.649410e+00 7.935663e+00 
6.684080e+00 7.852771e+00 
6.719340e+00 7.769677e+00 
6.754010e+00 7.689215e+00 
6.788680e+00 7.610059e+00 
6.823940e+00 7.530694e+00 
6.859800e+00 7.451134e+00 
6.894470e+00 7.375486e+00 
6.929140e+00 7.300950e+00 
6.963800e+00 7.227460e+00 
6.999070e+00 7.153725e+00 
7.033730e+00 7.082496e+00 
7.068400e+00 7.012211e+00 
7.103660e+00 6.941703e+00 
7.138330e+00 6.873394e+00 
7.173600e+00 6.805010e+00 
7.208260e+00 6.738709e+00 
7.243530e+00 6.672142e+00 
7.277600e+00 6.608812e+00 
7.312860e+00 6.544243e+00 
7.348120e+00 6.480531e+00 
7.382790e+00 6.418707e+00 
7.417460e+00 6.357826e+00 
7.452720e+00 6.296789e+00 
7.487390e+00 6.237548e+00 
7.522650e+00 6.178074e+00 
7.557320e+00 6.120500e+00 
7.591990e+00 6.063711e+00 
7.627250e+00 6.006689e+00 
7.662510e+00 5.950394e+00 
7.697180e+00 5.895890e+00 
7.731850e+00 5.842122e+00 
7.766510e+00 5.789034e+00 
7.801180e+00 5.736585e+00 
7.836440e+00 5.684029e+00 
7.871110e+00 5.633065e+00 
7.906380e+00 5.581855e+00 
7.941040e+00 5.532145e+00 
7.976310e+00 5.482254e+00 
8.011570e+00 5.433079e+00 
8.046240e+00 5.385310e+00 
8.080900e+00 5.338123e+00 
8.115570e+00 5.291524e+00 
8.150830e+00 5.244858e+00 
8.185500e+00 5.199515e+00 
8.220770e+00 5.153933e+00 
8.255430e+00 5.109666e+00 
8.290100e+00 5.066040e+00 
8.324770e+00 5.022935e+00 
8.359430e+00 4.980338e+00 
8.394700e+00 4.937493e+00 
8.429960e+00 4.895246e+00 
8.464630e+00 4.854272e+00 
8.499890e+00 4.813077e+00 
8.534560e+00 4.773032e+00 
8.569200e+00 4.733471e+00 
