# Parameters:
# omega_b = 0.022500, omega_m = 0.137500, n_s = 0.950000, h = 69.033203, w = -1.000000,sigma_8 = 0.755000
# z = 0.280000
#
# k[1/Mpc] # P(k):
8.694000e-04 1.160940e+04 
2.077466e-03 2.445185e+04 
3.285532e-03 3.431787e+04 
4.493598e-03 4.178161e+04 
5.701664e-03 4.723167e+04 
6.909730e-03 5.101449e+04 
8.117797e-03 5.350535e+04 
9.325863e-03 5.489881e+04 
1.053393e-02 5.538705e+04 
1.174199e-02 5.514492e+04 
1.295006e-02 5.428652e+04 
1.415813e-02 5.296021e+04 
1.536619e-02 5.129095e+04 
1.657426e-02 4.936629e+04 
1.778233e-02 4.726272e+04 
1.899039e-02 4.509383e+04 
2.019846e-02 4.291976e+04 
2.140652e-02 4.079326e+04 
2.261459e-02 3.874163e+04 
2.382266e-02 3.679859e+04 
2.503072e-02 3.498901e+04 
2.623879e-02 3.331948e+04 
2.744685e-02 3.179214e+04 
2.865492e-02 3.040852e+04 
2.986299e-02 2.916187e+04 
3.100100e-02 2.810842e+04 
3.220400e-02 2.711196e+04 
3.288100e-02 2.660276e+04 
3.424300e-02 2.567522e+04 
3.555100e-02 2.488901e+04 
3.686000e-02 2.419091e+04 
3.795000e-02 2.366412e+04 
3.929100e-02 2.307321e+04 
4.039800e-02 2.261828e+04 
4.164000e-02 2.213300e+04 
4.294400e-02 2.163407e+04 
4.415000e-02 2.118026e+04 
4.542900e-02 2.068643e+04 
4.660900e-02 2.022812e+04 
4.782300e-02 1.972881e+04 
4.892900e-02 1.926225e+04 
5.031200e-02 1.865834e+04 
5.155900e-02 1.809287e+04 
5.238100e-02 1.771182e+04 
5.378200e-02 1.705612e+04 
5.513400e-02 1.641537e+04 
5.627600e-02 1.587388e+04 
5.735300e-02 1.537085e+04 
5.870100e-02 1.475796e+04 
5.988700e-02 1.423777e+04 
6.113500e-02 1.371401e+04 
6.225900e-02 1.326463e+04 
6.340100e-02 1.283679e+04 
6.480200e-02 1.234836e+04 
6.601100e-02 1.196194e+04 
6.725500e-02 1.159771e+04 
6.829100e-02 1.132296e+04 
6.958600e-02 1.100945e+04 
7.071100e-02 1.076541e+04 
7.192300e-02 1.052716e+04 
7.307400e-02 1.032231e+04 
7.412300e-02 1.015219e+04 
7.550400e-02 9.951378e+03 
7.663100e-02 9.800693e+03 
7.791200e-02 9.644044e+03 
7.912700e-02 9.503498e+03 
8.027600e-02 9.376712e+03 
8.138400e-02 9.257239e+03 
8.272200e-02 9.113595e+03 
8.406100e-02 8.969016e+03 
8.534100e-02 8.825483e+03 
8.653800e-02 8.687004e+03 
8.759800e-02 8.561184e+03 
8.900300e-02 8.388058e+03 
9.009000e-02 8.248176e+03 
9.113300e-02 8.109966e+03 
9.239600e-02 7.940948e+03 
9.358000e-02 7.779402e+03 
9.496100e-02 7.587029e+03 
9.608400e-02 7.431393e+03 
9.727500e-02 7.268271e+03 
9.852600e-02 7.097554e+03 
9.973800e-02 6.936798e+03 
1.009000e-01 6.786902e+03 
1.020900e-01 6.639788e+03 
1.034000e-01 6.484793e+03 
1.046000e-01 6.349268e+03 
1.057200e-01 6.230802e+03 
1.069100e-01 6.110602e+03 
1.082500e-01 5.986524e+03 
1.093900e-01 5.888188e+03 
1.105400e-01 5.793998e+03 
1.116900e-01 5.708751e+03 
1.129600e-01 5.619201e+03 
1.142000e-01 5.539175e+03 
1.153300e-01 5.469929e+03 
1.166400e-01 5.394565e+03 
1.177800e-01 5.332203e+03 
1.190000e-01 5.267811e+03 
1.201200e-01 5.210115e+03 
1.213400e-01 5.148753e+03 
1.227100e-01 5.080159e+03 
1.238900e-01 5.021903e+03 
1.250700e-01 4.962696e+03 
1.263200e-01 4.900225e+03 
1.275500e-01 4.837487e+03 
1.287500e-01 4.776461e+03 
1.299900e-01 4.712898e+03 
1.311300e-01 4.654312e+03 
1.323500e-01 4.590805e+03 
1.335900e-01 4.526727e+03 
1.347100e-01 4.468786e+03 
1.359800e-01 4.403954e+03 
1.372100e-01 4.341443e+03 
1.384300e-01 4.280537e+03 
1.395700e-01 4.224151e+03 
1.407700e-01 4.166038e+03 
1.420300e-01 4.106252e+03 
1.432800e-01 4.048260e+03 
1.444500e-01 3.995443e+03 
1.456300e-01 3.943264e+03 
1.468900e-01 3.889750e+03 
1.480500e-01 3.841804e+03 
1.491700e-01 3.796910e+03 
1.503800e-01 3.750000e+03 
1.516400e-01 3.702461e+03 
1.528200e-01 3.660193e+03 
1.540200e-01 3.618036e+03 
1.551900e-01 3.578698e+03 
1.564300e-01 3.538041e+03 
1.576600e-01 3.499136e+03 
1.588700e-01 3.462360e+03 
1.600900e-01 3.425998e+03 
1.612700e-01 3.391929e+03 
1.625400e-01 3.355940e+03 
1.637600e-01 3.322272e+03 
1.649500e-01 3.290172e+03 
1.662200e-01 3.256488e+03 
1.674000e-01 3.225481e+03 
1.685000e-01 3.197057e+03 
1.697500e-01 3.165003e+03 
1.710300e-01 3.132473e+03 
1.722200e-01 3.102764e+03 
1.734400e-01 3.072100e+03 
1.746400e-01 3.042425e+03 
1.758700e-01 3.012361e+03 
1.770900e-01 2.982715e+03 
1.782700e-01 2.954518e+03 
1.794600e-01 2.926160e+03 
1.807000e-01 2.896842e+03 
1.819100e-01 2.868712e+03 
1.830100e-01 2.843222e+03 
1.842200e-01 2.815566e+03 
1.855000e-01 2.786806e+03 
1.867000e-01 2.760470e+03 
1.879200e-01 2.734124e+03 
1.890900e-01 2.709285e+03 
1.902800e-01 2.684566e+03 
1.915200e-01 2.659214e+03 
1.926900e-01 2.635746e+03 
1.939000e-01 2.612108e+03 
1.951700e-01 2.587688e+03 
1.963100e-01 2.566191e+03 
1.975100e-01 2.544130e+03 
1.987800e-01 2.521140e+03 
2.000100e-01 2.499315e+03 
2.012500e-01 2.477869e+03 
2.023400e-01 2.459286e+03 
2.036100e-01 2.437973e+03 
2.048900e-01 2.416942e+03 
2.060400e-01 2.398322e+03 
2.072200e-01 2.379490e+03 
2.084200e-01 2.360730e+03 
2.096900e-01 2.341164e+03 
2.109200e-01 2.322490e+03 
2.121100e-01 2.304663e+03 
2.132700e-01 2.287520e+03 
2.145200e-01 2.269303e+03 
2.157200e-01 2.252053e+03 
2.168800e-01 2.235600e+03 
2.180700e-01 2.218945e+03 
2.193400e-01 2.201410e+03 
2.206000e-01 2.184248e+03 
2.217500e-01 2.168795e+03 
2.229500e-01 2.152878e+03 
2.241400e-01 2.137300e+03 
2.253500e-01 2.121667e+03 
2.264900e-01 2.107126e+03 
2.277100e-01 2.091812e+03 
2.289900e-01 2.076013e+03 
2.301500e-01 2.061882e+03 
2.313600e-01 2.047327e+03 
2.325600e-01 2.033067e+03 
2.337700e-01 2.018871e+03 
2.350000e-01 2.004624e+03 
2.362000e-01 1.990943e+03 
2.374100e-01 1.977369e+03 
2.386500e-01 1.963635e+03 
2.399100e-01 1.949857e+03 
2.410400e-01 1.937634e+03 
2.422500e-01 1.924698e+03 
2.435000e-01 1.911501e+03 
2.447300e-01 1.898709e+03 
2.458700e-01 1.887126e+03 
2.470600e-01 1.875174e+03 
2.483300e-01 1.862574e+03 
2.495600e-01 1.850551e+03 
2.507600e-01 1.839002e+03 
2.519600e-01 1.827588e+03 
2.532200e-01 1.815746e+03 
2.543700e-01 1.805098e+03 
2.555500e-01 1.794317e+03 
2.568000e-01 1.783029e+03 
2.580100e-01 1.772230e+03 
2.592400e-01 1.761422e+03 
2.604100e-01 1.751276e+03 
2.616100e-01 1.740985e+03 
2.628400e-01 1.730556e+03 
2.640600e-01 1.720309e+03 
2.652200e-01 1.710666e+03 
2.664300e-01 1.700716e+03 
2.676500e-01 1.690795e+03 
2.688400e-01 1.681214e+03 
2.700700e-01 1.671412e+03 
2.712400e-01 1.662189e+03 
2.724800e-01 1.652521e+03 
2.736700e-01 1.643367e+03 
2.748800e-01 1.634184e+03 
2.761000e-01 1.625025e+03 
2.773200e-01 1.615964e+03 
2.785400e-01 1.606972e+03 
2.797000e-01 1.598452e+03 
2.808900e-01 1.589800e+03 
2.821400e-01 1.580809e+03 
2.833900e-01 1.571916e+03 
2.845500e-01 1.563801e+03 
2.857800e-01 1.555283e+03 
2.870300e-01 1.546719e+03 
2.882100e-01 1.538718e+03 
2.893900e-01 1.530745e+03 
2.906300e-01 1.522424e+03 
2.918900e-01 1.514058e+03 
2.930500e-01 1.506434e+03 
2.942500e-01 1.498636e+03 
2.954200e-01 1.491144e+03 
2.966500e-01 1.483346e+03 
2.978900e-01 1.475564e+03 
2.990400e-01 1.468417e+03 
3.002700e-01 1.460840e+03 
3.015100e-01 1.453273e+03 
3.026800e-01 1.446203e+03 
3.038500e-01 1.439200e+03 
3.050300e-01 1.432202e+03 
3.062600e-01 1.424909e+03 
3.075000e-01 1.417628e+03 
3.087000e-01 1.410651e+03 
3.099100e-01 1.403682e+03 
3.111200e-01 1.396817e+03 
3.123100e-01 1.390191e+03 
3.135300e-01 1.383462e+03 
3.147300e-01 1.376905e+03 
3.159900e-01 1.370086e+03 
3.171800e-01 1.363699e+03 
3.183700e-01 1.357365e+03 
3.196300e-01 1.350721e+03 
3.208400e-01 1.344401e+03 
3.220300e-01 1.338242e+03 
3.232000e-01 1.332232e+03 
3.244300e-01 1.325967e+03 
3.256700e-01 1.319709e+03 
3.269200e-01 1.313460e+03 
3.280800e-01 1.307713e+03 
3.292500e-01 1.302032e+03 
3.304800e-01 1.296132e+03 
3.317100e-01 1.290286e+03 
3.328900e-01 1.284727e+03 
3.340700e-01 1.279216e+03 
3.353600e-01 1.273233e+03 
3.365300e-01 1.267850e+03 
3.377100e-01 1.262468e+03 
3.389200e-01 1.256996e+03 
3.401600e-01 1.251439e+03 
3.413700e-01 1.246079e+03 
3.425300e-01 1.240997e+03 
3.437700e-01 1.235610e+03 
3.449800e-01 1.230399e+03 
3.461800e-01 1.225275e+03 
3.473600e-01 1.220299e+03 
3.485800e-01 1.215248e+03 
3.498100e-01 1.210198e+03 
3.510200e-01 1.205274e+03 
3.522000e-01 1.200511e+03 
3.533900e-01 1.195747e+03 
3.546400e-01 1.190767e+03 
3.558400e-01 1.186025e+03 
3.570600e-01 1.181244e+03 
3.582700e-01 1.176541e+03 
3.595000e-01 1.171801e+03 
3.607100e-01 1.167189e+03 
3.618900e-01 1.162738e+03 
3.631200e-01 1.158137e+03 
3.643200e-01 1.153684e+03 
3.655500e-01 1.149157e+03 
3.667300e-01 1.144849e+03 
3.679500e-01 1.140490e+03 
3.691900e-01 1.136095e+03 
3.703600e-01 1.131981e+03 
3.715700e-01 1.127760e+03 
3.727700e-01 1.123607e+03 
3.739900e-01 1.119412e+03 
3.752000e-01 1.115272e+03 
3.763900e-01 1.111232e+03 
3.775800e-01 1.107223e+03 
3.788200e-01 1.103079e+03 
3.800300e-01 1.099066e+03 
3.812100e-01 1.095188e+03 
3.824200e-01 1.091245e+03 
3.836100e-01 1.087397e+03 
3.848600e-01 1.083386e+03 
3.860400e-01 1.079629e+03 
3.872400e-01 1.075837e+03 
3.884600e-01 1.072004e+03 
3.896500e-01 1.068289e+03 
3.908700e-01 1.064510e+03 
3.920600e-01 1.060852e+03 
3.933100e-01 1.057039e+03 
3.945300e-01 1.053345e+03 
3.957200e-01 1.049778e+03 
3.969300e-01 1.046180e+03 
3.981700e-01 1.042520e+03 
3.993500e-01 1.039063e+03 
4.094840e-01 1.010430e+03 
4.272360e-01 9.639656e+02 
4.454600e-01 9.207027e+02 
4.630560e-01 8.823596e+02 
4.804610e-01 8.474577e+02 
4.980690e-01 8.148550e+02 
5.159230e-01 7.842052e+02 
5.317440e-01 7.590281e+02 
5.489640e-01 7.333620e+02 
5.671990e-01 7.082077e+02 
5.838690e-01 6.866991e+02 
6.018840e-01 6.650040e+02 
6.202330e-01 6.443762e+02 
6.379250e-01 6.256717e+02 
6.545410e-01 6.092240e+02 
6.714560e-01 5.933683e+02 
6.892080e-01 5.776145e+02 
7.066010e-01 5.630151e+02 
7.240540e-01 5.491214e+02 
7.420450e-01 5.354487e+02 
7.593780e-01 5.229161e+02 
7.764720e-01 5.111201e+02 
7.942840e-01 4.993438e+02 
8.116170e-01 4.883165e+02 
8.288310e-01 4.777386e+02 
8.462240e-01 4.674732e+02 
8.631980e-01 4.578557e+02 
8.810700e-01 4.480820e+02 
8.989410e-01 4.385994e+02 
9.166330e-01 4.295318e+02 
9.345640e-01 4.206170e+02 
9.515980e-01 4.124369e+02 
9.688720e-01 4.043849e+02 
9.865640e-01 3.963512e+02 
1.031870e+00 3.768068e+02 
1.063490e+00 3.639236e+02 
1.097920e+00 3.506521e+02 
1.134370e+00 3.373098e+02 
1.167730e+00 3.257037e+02 
1.203830e+00 3.137185e+02 
1.240470e+00 3.022204e+02 
1.275790e+00 2.916101e+02 
1.309140e+00 2.820812e+02 
1.342970e+00 2.728269e+02 
1.378420e+00 2.635880e+02 
1.413200e+00 2.549166e+02 
1.448110e+00 2.465950e+02 
1.484090e+00 2.384072e+02 
1.518820e+00 2.308896e+02 
1.552880e+00 2.237725e+02 
1.588630e+00 2.166502e+02 
1.623230e+00 2.100449e+02 
1.657720e+00 2.037462e+02 
1.692450e+00 1.976778e+02 
1.726400e+00 1.919320e+02 
1.762200e+00 1.861510e+02 
1.797880e+00 1.806244e+02 
1.833270e+00 1.753740e+02 
1.869070e+00 1.702805e+02 
1.903200e+00 1.655939e+02 
1.937740e+00 1.610366e+02 
1.973190e+00 1.565540e+02 
2.007440e+00 1.523825e+02 
2.042160e+00 1.483062e+02 
2.077900e+00 1.442633e+02 
2.112390e+00 1.405068e+02 
2.146220e+00 1.369653e+02 
2.181600e+00 1.333743e+02 
2.216930e+00 1.299281e+02 
2.250760e+00 1.267460e+02 
2.286500e+00 1.234981e+02 
2.321770e+00 1.204030e+02 
2.355950e+00 1.175019e+02 
2.391280e+00 1.146166e+02 
2.426240e+00 1.118594e+02 
2.460670e+00 1.092316e+02 
2.495640e+00 1.066463e+02 
2.531080e+00 1.041110e+02 
2.566220e+00 1.016765e+02 
2.600830e+00 9.935423e+01 
2.635080e+00 9.712754e+01 
2.670340e+00 9.491511e+01 
2.705970e+00 9.275094e+01 
2.740040e+00 9.074508e+01 
2.774520e+00 8.877055e+01 
2.809730e+00 8.682327e+01 
2.844390e+00 8.496724e+01 
2.879960e+00 8.311665e+01 
2.914860e+00 8.135328e+01 
2.949410e+00 7.965866e+01 
2.984440e+00 7.798876e+01 
3.019760e+00 7.635126e+01 
3.054730e+00 7.477632e+01 
3.089030e+00 7.328193e+01 
3.124060e+00 7.179817e+01 
3.159560e+00 7.033564e+01 
3.194710e+00 6.893305e+01 
3.229010e+00 6.760324e+01 
3.263320e+00 6.629762e+01 
3.297930e+00 6.501849e+01 
3.332830e+00 6.376725e+01 
3.368040e+00 6.254153e+01 
3.403300e+00 6.134908e+01 
3.438450e+00 6.018957e+01 
3.473060e+00 5.907764e+01 
3.508440e+00 5.796916e+01 
3.543110e+00 5.691112e+01 
3.577470e+00 5.588731e+01 
3.613040e+00 5.485574e+01 
3.648120e+00 5.386726e+01 
3.682910e+00 5.291062e+01 
3.718050e+00 5.196641e+01 
3.753320e+00 5.104430e+01 
3.787980e+00 5.016315e+01 
3.822290e+00 4.931087e+01 
3.857020e+00 4.846718e+01 
3.891920e+00 4.764081e+01 
3.926650e+00 4.684001e+01 
3.961970e+00 4.604445e+01 
3.997360e+00 4.526506e+01 
4.031670e+00 4.452762e+01 
4.066330e+00 4.380222e+01 
4.101420e+00 4.308458e+01 
4.136200e+00 4.238781e+01 
4.170810e+00 4.171001e+01 
4.206250e+00 4.103114e+01 
4.241580e+00 4.036957e+01 
4.276300e+00 3.973724e+01 
4.310970e+00 3.912146e+01 
4.346120e+00 3.850932e+01 
4.380600e+00 3.791946e+01 
4.414730e+00 3.734803e+01 
4.450350e+00 3.676925e+01 
4.485320e+00 3.621314e+01 
4.519810e+00 3.567387e+01 
4.555430e+00 3.512758e+01 
4.590870e+00 3.459708e+01 
4.625480e+00 3.409290e+01 
4.659910e+00 3.360144e+01 
4.695230e+00 3.310680e+01 
4.729960e+00 3.263012e+01 
4.764450e+00 3.216669e+01 
4.799530e+00 3.170564e+01 
4.834910e+00 3.124987e+01 
4.869700e+00 3.081061e+01 
4.904370e+00 3.038133e+01 
4.939450e+00 2.995577e+01 
4.973940e+00 2.954644e+01 
5.008430e+00 2.914480e+01 
5.043810e+00 2.874149e+01 
5.078840e+00 2.835024e+01 
5.113500e+00 2.797033e+01 
5.148890e+00 2.758978e+01 
5.184210e+00 2.721707e+01 
5.219060e+00 2.685633e+01 
5.253660e+00 2.650536e+01 
5.288570e+00 2.615762e+01 
5.323420e+00 2.581761e+01 
5.358440e+00 2.548307e+01 
5.393590e+00 2.515327e+01 
5.428310e+00 2.483296e+01 
5.462800e+00 2.452015e+01 
5.497640e+00 2.420964e+01 
5.532670e+00 2.390414e+01 
5.567280e+00 2.360789e+01 
5.602000e+00 2.331575e+01 
5.637270e+00 2.302466e+01 
5.672410e+00 2.273973e+01 
5.707020e+00 2.246381e+01 
5.742040e+00 2.218945e+01 
5.777430e+00 2.191688e+01 
5.812210e+00 2.165345e+01 
5.846820e+00 2.139632e+01 
5.881610e+00 2.114225e+01 
5.916510e+00 2.089150e+01 
5.951600e+00 2.064431e+01 
5.986560e+00 2.040239e+01 
6.021830e+00 2.016225e+01 
6.056490e+00 1.992995e+01 
6.091160e+00 1.970119e+01 
6.125830e+00 1.947600e+01 
6.161090e+00 1.925082e+01 
6.195760e+00 1.903340e+01 
6.230420e+00 1.881938e+01 
6.265690e+00 1.860499e+01 
6.300950e+00 1.839504e+01 
6.335620e+00 1.819175e+01 
6.370880e+00 1.798813e+01 
6.405550e+00 1.779086e+01 
6.440220e+00 1.759648e+01 
6.475480e+00 1.740175e+01 
6.510150e+00 1.721342e+01 
6.544810e+00 1.702857e+01 
6.580080e+00 1.684323e+01 
6.614750e+00 1.666370e+01 
6.649410e+00 1.648741e+01 
6.684080e+00 1.631371e+01 
6.719340e+00 1.613960e+01 
6.754010e+00 1.597084e+01 
6.788680e+00 1.580443e+01 
6.823940e+00 1.563760e+01 
6.859800e+00 1.547037e+01 
6.894470e+00 1.531158e+01 
6.929140e+00 1.515521e+01 
6.963800e+00 1.500105e+01 
6.999070e+00 1.484633e+01 
7.033730e+00 1.469622e+01 
7.068400e+00 1.454811e+01 
7.103660e+00 1.439955e+01 
7.138330e+00 1.425576e+01 
7.173600e+00 1.411207e+01 
7.208260e+00 1.397276e+01 
7.243530e+00 1.383291e+01 
7.277600e+00 1.369947e+01 
7.312860e+00 1.356305e+01 
7.348120e+00 1.342845e+01 
7.382790e+00 1.329786e+01 
7.417460e+00 1.316949e+01 
7.452720e+00 1.304091e+01 
7.487390e+00 1.291614e+01 
7.522650e+00 1.279088e+01 
7.557320e+00 1.266968e+01 
7.591990e+00 1.255016e+01 
7.627250e+00 1.243016e+01 
7.662510e+00 1.231170e+01 
7.697180e+00 1.219631e+01 
7.731850e+00 1.208221e+01 
7.766510e+00 1.196958e+01 
7.801180e+00 1.185831e+01 
7.836440e+00 1.174720e+01 
7.871110e+00 1.163970e+01 
7.906380e+00 1.153169e+01 
7.941040e+00 1.142686e+01 
7.976310e+00 1.132150e+01 
8.011570e+00 1.121747e+01 
8.046240e+00 1.111644e+01 
8.080900e+00 1.101665e+01 
8.115570e+00 1.091803e+01 
8.150830e+00 1.081894e+01 
8.185500e+00 1.072267e+01 
8.220770e+00 1.062591e+01 
8.255430e+00 1.053196e+01 
8.290100e+00 1.043949e+01 
8.324770e+00 1.034816e+01 
8.359430e+00 1.025791e+01 
8.394700e+00 1.016716e+01 
8.429960e+00 1.007751e+01 
8.464630e+00 9.990387e+00 
8.499890e+00 9.902812e+00 
8.534560e+00 9.817698e+00 
8.569200e+00 9.733630e+00 
