# Parameters:
# omega_b = 0.022500, omega_m = 0.137500, n_s = 0.950000, h = 69.033203, w = -1.000000,sigma_8 = 0.755000
# z = 0.370000
#
# k[1/Mpc] # P(k):
8.694000e-04 1.062963e+04 
2.077466e-03 2.240558e+04 
3.285532e-03 3.144283e+04 
4.493598e-03 3.827919e+04 
5.701664e-03 4.326527e+04 
6.909730e-03 4.672183e+04 
8.117797e-03 4.899551e+04 
9.325863e-03 5.026522e+04 
1.053393e-02 5.070691e+04 
1.174199e-02 5.048054e+04 
1.295006e-02 4.968929e+04 
1.415813e-02 4.847040e+04 
1.536619e-02 4.693859e+04 
1.657426e-02 4.517383e+04 
1.778233e-02 4.324756e+04 
1.899039e-02 4.126147e+04 
2.019846e-02 3.926841e+04 
2.140652e-02 3.731757e+04 
2.261459e-02 3.543604e+04 
2.382266e-02 3.365498e+04 
2.503072e-02 3.199599e+04 
2.623879e-02 3.046581e+04 
2.744685e-02 2.906640e+04 
2.865492e-02 2.779863e+04 
2.986299e-02 2.665659e+04 
3.100100e-02 2.569173e+04 
3.220400e-02 2.477956e+04 
3.288100e-02 2.431314e+04 
3.424300e-02 2.346437e+04 
3.555100e-02 2.274531e+04 
3.686000e-02 2.210725e+04 
3.795000e-02 2.162594e+04 
3.929100e-02 2.108674e+04 
4.039800e-02 2.067178e+04 
4.164000e-02 2.022928e+04 
4.294400e-02 1.977481e+04 
4.415000e-02 1.936104e+04 
4.542900e-02 1.891138e+04 
4.660900e-02 1.849271e+04 
4.782300e-02 1.803687e+04 
4.892900e-02 1.761126e+04 
5.031200e-02 1.705918e+04 
5.155900e-02 1.654166e+04 
5.238100e-02 1.619321e+04 
5.378200e-02 1.559217e+04 
5.513400e-02 1.500497e+04 
5.627600e-02 1.450890e+04 
5.735300e-02 1.404743e+04 
5.870100e-02 1.348408e+04 
5.988700e-02 1.300629e+04 
6.113500e-02 1.252515e+04 
6.225900e-02 1.211338e+04 
6.340100e-02 1.172010e+04 
6.480200e-02 1.127111e+04 
6.601100e-02 1.091644e+04 
6.725500e-02 1.058260e+04 
6.829100e-02 1.033071e+04 
6.958600e-02 1.004293e+04 
7.071100e-02 9.818910e+03 
7.192300e-02 9.600678e+03 
7.307400e-02 9.413484e+03 
7.412300e-02 9.258113e+03 
7.550400e-02 9.074577e+03 
7.663100e-02 8.937158e+03 
7.791200e-02 8.794478e+03 
7.912700e-02 8.667278e+03 
8.027600e-02 8.551890e+03 
8.138400e-02 8.443159e+03 
8.272200e-02 8.312834e+03 
8.406100e-02 8.181555e+03 
8.534100e-02 8.051251e+03 
8.653800e-02 7.924726e+03 
8.759800e-02 7.809715e+03 
8.900300e-02 7.651629e+03 
9.009000e-02 7.524092e+03 
9.113300e-02 7.397530e+03 
9.239600e-02 7.242432e+03 
9.358000e-02 7.093984e+03 
9.496100e-02 6.917166e+03 
9.608400e-02 6.773905e+03 
9.727500e-02 6.623552e+03 
9.852600e-02 6.465921e+03 
9.973800e-02 6.317466e+03 
1.009000e-01 6.179029e+03 
1.020900e-01 6.042884e+03 
1.034000e-01 5.899440e+03 
1.046000e-01 5.774016e+03 
1.057200e-01 5.664722e+03 
1.069100e-01 5.553813e+03 
1.082500e-01 5.438937e+03 
1.093900e-01 5.348120e+03 
1.105400e-01 5.261269e+03 
1.116900e-01 5.182660e+03 
1.129600e-01 5.100146e+03 
1.142000e-01 5.026704e+03 
1.153300e-01 4.963169e+03 
1.166400e-01 4.894039e+03 
1.177800e-01 4.837033e+03 
1.190000e-01 4.778267e+03 
1.201200e-01 4.725816e+03 
1.213400e-01 4.670068e+03 
1.227100e-01 4.607706e+03 
1.238900e-01 4.554758e+03 
1.250700e-01 4.501010e+03 
1.263200e-01 4.444347e+03 
1.275500e-01 4.387549e+03 
1.287500e-01 4.332148e+03 
1.299900e-01 4.274210e+03 
1.311300e-01 4.220835e+03 
1.323500e-01 4.163016e+03 
1.335900e-01 4.104574e+03 
1.347100e-01 4.051592e+03 
1.359800e-01 3.992216e+03 
1.372100e-01 3.934777e+03 
1.384300e-01 3.878771e+03 
1.395700e-01 3.826818e+03 
1.407700e-01 3.773259e+03 
1.420300e-01 3.717944e+03 
1.432800e-01 3.664297e+03 
1.444500e-01 3.615491e+03 
1.456300e-01 3.567283e+03 
1.468900e-01 3.517707e+03 
1.480500e-01 3.473254e+03 
1.491700e-01 3.431698e+03 
1.503800e-01 3.388359e+03 
1.516400e-01 3.344448e+03 
1.528200e-01 3.305434e+03 
1.540200e-01 3.266524e+03 
1.551900e-01 3.230415e+03 
1.564300e-01 3.193146e+03 
1.576600e-01 3.157467e+03 
1.588700e-01 3.123720e+03 
1.600900e-01 3.090366e+03 
1.612700e-01 3.059343e+03 
1.625400e-01 3.026574e+03 
1.637600e-01 2.995877e+03 
1.649500e-01 2.966586e+03 
1.662200e-01 2.935860e+03 
1.674000e-01 2.907633e+03 
1.685000e-01 2.881758e+03 
1.697500e-01 2.852560e+03 
1.710300e-01 2.822911e+03 
1.722200e-01 2.795834e+03 
1.734400e-01 2.767831e+03 
1.746400e-01 2.740729e+03 
1.758700e-01 2.713215e+03 
1.770900e-01 2.685967e+03 
1.782700e-01 2.660052e+03 
1.794600e-01 2.634004e+03 
1.807000e-01 2.607084e+03 
1.819100e-01 2.581257e+03 
1.830100e-01 2.557892e+03 
1.842200e-01 2.532549e+03 
1.855000e-01 2.506191e+03 
1.867000e-01 2.481938e+03 
1.879200e-01 2.457678e+03 
1.890900e-01 2.434809e+03 
1.902800e-01 2.412065e+03 
1.915200e-01 2.388741e+03 
1.926900e-01 2.367150e+03 
1.939000e-01 2.345401e+03 
1.951700e-01 2.322934e+03 
1.963100e-01 2.303167e+03 
1.975100e-01 2.282913e+03 
1.987800e-01 2.261808e+03 
2.000100e-01 2.241779e+03 
2.012500e-01 2.222110e+03 
2.023400e-01 2.205067e+03 
2.036100e-01 2.185536e+03 
2.048900e-01 2.166319e+03 
2.060400e-01 2.149306e+03 
2.072200e-01 2.132101e+03 
2.084200e-01 2.114975e+03 
2.096900e-01 2.097114e+03 
2.109200e-01 2.080068e+03 
2.121100e-01 2.063837e+03 
2.132700e-01 2.048232e+03 
2.145200e-01 2.031650e+03 
2.157200e-01 2.015958e+03 
2.168800e-01 2.000995e+03 
2.180700e-01 1.985849e+03 
2.193400e-01 1.969910e+03 
2.206000e-01 1.954323e+03 
2.217500e-01 1.940287e+03 
2.229500e-01 1.925831e+03 
2.241400e-01 1.911705e+03 
2.253500e-01 1.897531e+03 
2.264900e-01 1.884348e+03 
2.277100e-01 1.870450e+03 
2.289900e-01 1.856099e+03 
2.301500e-01 1.843263e+03 
2.313600e-01 1.830043e+03 
2.325600e-01 1.817153e+03 
2.337700e-01 1.804320e+03 
2.350000e-01 1.791442e+03 
2.362000e-01 1.779085e+03 
2.374100e-01 1.766838e+03 
2.386500e-01 1.754445e+03 
2.399100e-01 1.742014e+03 
2.410400e-01 1.731052e+03 
2.422500e-01 1.719460e+03 
2.435000e-01 1.707634e+03 
2.447300e-01 1.696165e+03 
2.458700e-01 1.685751e+03 
2.470600e-01 1.675007e+03 
2.483300e-01 1.663680e+03 
2.495600e-01 1.652877e+03 
2.507600e-01 1.642507e+03 
2.519600e-01 1.632258e+03 
2.532200e-01 1.621626e+03 
2.543700e-01 1.612057e+03 
2.555500e-01 1.602365e+03 
2.568000e-01 1.592218e+03 
2.580100e-01 1.582509e+03 
2.592400e-01 1.572771e+03 
2.604100e-01 1.563621e+03 
2.616100e-01 1.554339e+03 
2.628400e-01 1.544934e+03 
2.640600e-01 1.535694e+03 
2.652200e-01 1.526998e+03 
2.664300e-01 1.518026e+03 
2.676500e-01 1.509081e+03 
2.688400e-01 1.500433e+03 
2.700700e-01 1.491581e+03 
2.712400e-01 1.483252e+03 
2.724800e-01 1.474521e+03 
2.736700e-01 1.466220e+03 
2.748800e-01 1.457857e+03 
2.761000e-01 1.449516e+03 
2.773200e-01 1.441265e+03 
2.785400e-01 1.433083e+03 
2.797000e-01 1.425342e+03 
2.808900e-01 1.417483e+03 
2.821400e-01 1.409315e+03 
2.833900e-01 1.401235e+03 
2.845500e-01 1.393803e+03 
2.857800e-01 1.386003e+03 
2.870300e-01 1.378161e+03 
2.882100e-01 1.370834e+03 
2.893900e-01 1.363544e+03 
2.906300e-01 1.355942e+03 
2.918900e-01 1.348298e+03 
2.930500e-01 1.341332e+03 
2.942500e-01 1.334197e+03 
2.954200e-01 1.327310e+03 
2.966500e-01 1.320141e+03 
2.978900e-01 1.312987e+03 
2.990400e-01 1.306417e+03 
3.002700e-01 1.299448e+03 
3.015100e-01 1.292487e+03 
3.026800e-01 1.285983e+03 
3.038500e-01 1.279541e+03 
3.050300e-01 1.273104e+03 
3.062600e-01 1.266430e+03 
3.075000e-01 1.259768e+03 
3.087000e-01 1.253383e+03 
3.099100e-01 1.247006e+03 
3.111200e-01 1.240703e+03 
3.123100e-01 1.234587e+03 
3.135300e-01 1.228376e+03 
3.147300e-01 1.222324e+03 
3.159900e-01 1.216030e+03 
3.171800e-01 1.210143e+03 
3.183700e-01 1.204310e+03 
3.196300e-01 1.198193e+03 
3.208400e-01 1.192373e+03 
3.220300e-01 1.186702e+03 
3.232000e-01 1.181183e+03 
3.244300e-01 1.175436e+03 
3.256700e-01 1.169695e+03 
3.269200e-01 1.163963e+03 
3.280800e-01 1.158691e+03 
3.292500e-01 1.153453e+03 
3.304800e-01 1.148005e+03 
3.317100e-01 1.142607e+03 
3.328900e-01 1.137474e+03 
3.340700e-01 1.132386e+03 
3.353600e-01 1.126883e+03 
3.365300e-01 1.121940e+03 
3.377100e-01 1.116997e+03 
3.389200e-01 1.111972e+03 
3.401600e-01 1.106868e+03 
3.413700e-01 1.101947e+03 
3.425300e-01 1.097280e+03 
3.437700e-01 1.092334e+03 
3.449800e-01 1.087550e+03 
3.461800e-01 1.082846e+03 
3.473600e-01 1.078271e+03 
3.485800e-01 1.073610e+03 
3.498100e-01 1.068951e+03 
3.510200e-01 1.064407e+03 
3.522000e-01 1.060013e+03 
3.533900e-01 1.055618e+03 
3.546400e-01 1.051053e+03 
3.558400e-01 1.046708e+03 
3.570600e-01 1.042328e+03 
3.582700e-01 1.038019e+03 
3.595000e-01 1.033676e+03 
3.607100e-01 1.029452e+03 
3.618900e-01 1.025376e+03 
3.631200e-01 1.021162e+03 
3.643200e-01 1.017085e+03 
3.655500e-01 1.012939e+03 
3.667300e-01 1.008994e+03 
3.679500e-01 1.004993e+03 
3.691900e-01 1.000959e+03 
3.703600e-01 9.971835e+02 
3.715700e-01 9.933093e+02 
3.727700e-01 9.894975e+02 
3.739900e-01 9.856521e+02 
3.752000e-01 9.818670e+02 
3.763900e-01 9.781735e+02 
3.775800e-01 9.745085e+02 
3.788200e-01 9.707195e+02 
3.800300e-01 9.670514e+02 
3.812100e-01 9.634970e+02 
3.824200e-01 9.598770e+02 
3.836100e-01 9.563442e+02 
3.848600e-01 9.526620e+02 
3.860400e-01 9.492128e+02 
3.872400e-01 9.457316e+02 
3.884600e-01 9.422420e+02 
3.896500e-01 9.388726e+02 
3.908700e-01 9.354443e+02 
3.920600e-01 9.321255e+02 
3.933100e-01 9.286658e+02 
3.945300e-01 9.253151e+02 
3.957200e-01 9.220668e+02 
3.969300e-01 9.187872e+02 
3.981700e-01 9.154516e+02 
3.993500e-01 9.123010e+02 
4.094840e-01 8.861145e+02 
4.272360e-01 8.439515e+02 
4.454600e-01 8.046501e+02 
4.630560e-01 7.699144e+02 
4.804610e-01 7.382942e+02 
4.980690e-01 7.088253e+02 
5.159230e-01 6.811771e+02 
5.317440e-01 6.584940e+02 
5.489640e-01 6.353728e+02 
5.671990e-01 6.126376e+02 
5.838690e-01 5.932791e+02 
6.018840e-01 5.737865e+02 
6.202330e-01 5.552968e+02 
6.379250e-01 5.385436e+02 
6.545410e-01 5.238056e+02 
6.714560e-01 5.096511e+02 
6.892080e-01 4.956099e+02 
7.066010e-01 4.825704e+02 
7.240540e-01 4.702071e+02 
7.420450e-01 4.581559e+02 
7.593780e-01 4.470410e+02 
7.764720e-01 4.366230e+02 
7.942840e-01 4.262774e+02 
8.116170e-01 4.165689e+02 
8.288310e-01 4.073483e+02 
8.462240e-01 3.983661e+02 
8.631980e-01 3.899580e+02 
8.810700e-01 3.814472e+02 
8.989410e-01 3.732505e+02 
9.166330e-01 3.654069e+02 
9.345640e-01 3.576889e+02 
9.515980e-01 3.506136e+02 
9.688720e-01 3.436848e+02 
9.865640e-01 3.367892e+02 
1.031870e+00 3.200413e+02 
1.063490e+00 3.090777e+02 
1.097920e+00 2.977463e+02 
1.134370e+00 2.864371e+02 
1.167730e+00 2.765685e+02 
1.203830e+00 2.664435e+02 
1.240470e+00 2.567081e+02 
1.275790e+00 2.477482e+02 
1.309140e+00 2.397143e+02 
1.342970e+00 2.318986e+02 
1.378420e+00 2.241207e+02 
1.413200e+00 2.168114e+02 
1.448110e+00 2.098108e+02 
1.484090e+00 2.029243e+02 
1.518820e+00 1.965885e+02 
1.552880e+00 1.905942e+02 
1.588630e+00 1.846044e+02 
1.623230e+00 1.790504e+02 
1.657720e+00 1.737461e+02 
1.692450e+00 1.686491e+02 
1.726400e+00 1.638231e+02 
1.762200e+00 1.589481e+02 
1.797880e+00 1.542917e+02 
1.833270e+00 1.498703e+02 
1.869070e+00 1.455681e+02 
1.903200e+00 1.416297e+02 
1.937740e+00 1.377941e+02 
1.973190e+00 1.340102e+02 
2.007440e+00 1.304881e+02 
2.042160e+00 1.270456e+02 
2.077900e+00 1.236322e+02 
2.112390e+00 1.204706e+02 
2.146220e+00 1.174657e+02 
2.181600e+00 1.144386e+02 
2.216930e+00 1.115276e+02 
2.250760e+00 1.088361e+02 
2.286500e+00 1.060882e+02 
2.321770e+00 1.034688e+02 
2.355950e+00 1.010128e+02 
2.391280e+00 9.856111e+01 
2.426240e+00 9.622297e+01 
2.460670e+00 9.399351e+01 
2.495640e+00 9.179513e+01 
2.531080e+00 8.964605e+01 
2.566220e+00 8.758176e+01 
2.600830e+00 8.561204e+01 
2.635080e+00 8.372266e+01 
2.670340e+00 8.183809e+01 
2.705970e+00 7.999834e+01 
2.740040e+00 7.829388e+01 
2.774520e+00 7.661055e+01 
2.809730e+00 7.495012e+01 
2.844390e+00 7.336717e+01 
2.879960e+00 7.178844e+01 
2.914860e+00 7.028366e+01 
2.949410e+00 6.883820e+01 
2.984440e+00 6.741749e+01 
3.019760e+00 6.602076e+01 
3.054730e+00 6.467531e+01 
3.089030e+00 6.339832e+01 
3.124060e+00 6.213014e+01 
3.159560e+00 6.087976e+01 
3.194710e+00 5.968032e+01 
3.229010e+00 5.854292e+01 
3.263320e+00 5.742573e+01 
3.297930e+00 5.633101e+01 
3.332830e+00 5.525990e+01 
3.368040e+00 5.420834e+01 
3.403300e+00 5.318363e+01 
3.438450e+00 5.218699e+01 
3.473060e+00 5.123112e+01 
3.508440e+00 5.028111e+01 
3.543110e+00 4.937422e+01 
3.577470e+00 4.849633e+01 
3.613040e+00 4.761163e+01 
3.648120e+00 4.676368e+01 
3.682910e+00 4.594192e+01 
3.718050e+00 4.512881e+01 
3.753320e+00 4.433565e+01 
3.787980e+00 4.357911e+01 
3.822290e+00 4.284623e+01 
3.857020e+00 4.211906e+01 
3.891920e+00 4.140672e+01 
3.926650e+00 4.071629e+01 
3.961970e+00 4.003027e+01 
3.997360e+00 3.935802e+01 
4.031670e+00 3.872189e+01 
4.066330e+00 3.809599e+01 
4.101420e+00 3.747673e+01 
4.136200e+00 3.687528e+01 
4.170810e+00 3.629018e+01 
4.206250e+00 3.570556e+01 
4.241580e+00 3.513605e+01 
4.276300e+00 3.458935e+01 
4.310970e+00 3.405562e+01 
4.346120e+00 3.352623e+01 
4.380600e+00 3.301807e+01 
4.414730e+00 3.252566e+01 
4.450350e+00 3.202361e+01 
4.485320e+00 3.154122e+01 
4.519810e+00 3.107541e+01 
4.555430e+00 3.060440e+01 
4.590870e+00 3.014645e+01 
4.625480e+00 2.971018e+01 
4.659910e+00 2.928488e+01 
4.695230e+00 2.885670e+01 
4.729960e+00 2.844403e+01 
4.764450e+00 2.804230e+01 
4.799530e+00 2.764175e+01 
4.834910e+00 2.724579e+01 
4.869700e+00 2.686615e+01 
4.904370e+00 2.649544e+01 
4.939450e+00 2.612757e+01 
4.973940e+00 2.577280e+01 
5.008430e+00 2.542469e+01 
5.043810e+00 2.507436e+01 
5.078840e+00 2.473408e+01 
5.113500e+00 2.440364e+01 
5.148890e+00 2.407457e+01 
5.184210e+00 2.375234e+01 
5.219060e+00 2.343991e+01 
5.253660e+00 2.313442e+01 
5.288570e+00 2.283174e+01 
5.323420e+00 2.253621e+01 
5.358440e+00 2.224587e+01 
5.393590e+00 2.195963e+01 
5.428310e+00 2.168157e+01 
5.462800e+00 2.140998e+01 
5.497640e+00 2.114038e+01 
5.532670e+00 2.087569e+01 
5.567280e+00 2.061920e+01 
5.602000e+00 2.036625e+01 
5.637270e+00 2.011285e+01 
5.672410e+00 1.986450e+01 
5.707020e+00 1.962400e+01 
5.742040e+00 1.938605e+01 
5.777430e+00 1.914989e+01 
5.812210e+00 1.892163e+01 
5.846820e+00 1.869823e+01 
5.881610e+00 1.847730e+01 
5.916510e+00 1.825927e+01 
5.951600e+00 1.804430e+01 
5.986560e+00 1.783388e+01 
6.021830e+00 1.762500e+01 
6.056490e+00 1.742325e+01 
6.091160e+00 1.722483e+01 
6.125830e+00 1.702949e+01 
6.161090e+00 1.683395e+01 
6.195760e+00 1.664471e+01 
6.230420e+00 1.645842e+01 
6.265690e+00 1.627180e+01 
6.300950e+00 1.608900e+01 
6.335620e+00 1.591199e+01 
6.370880e+00 1.573469e+01 
6.405550e+00 1.556326e+01 
6.440220e+00 1.539449e+01 
6.475480e+00 1.522540e+01 
6.510150e+00 1.506185e+01 
6.544810e+00 1.490128e+01 
6.580080e+00 1.474028e+01 
6.614750e+00 1.458433e+01 
6.649410e+00 1.443075e+01 
6.684080e+00 1.427934e+01 
6.719340e+00 1.412758e+01 
6.754010e+00 1.398060e+01 
6.788680e+00 1.383595e+01 
6.823940e+00 1.369093e+01 
6.859800e+00 1.354555e+01 
6.894470e+00 1.340749e+01 
6.929140e+00 1.327151e+01 
6.963800e+00 1.313745e+01 
6.999070e+00 1.300290e+01 
7.033730e+00 1.287232e+01 
7.068400e+00 1.274348e+01 
7.103660e+00 1.261423e+01 
7.138330e+00 1.248924e+01 
7.173600e+00 1.236458e+01 
7.208260e+00 1.224372e+01 
7.243530e+00 1.212237e+01 
7.277600e+00 1.200637e+01 
7.312860e+00 1.188759e+01 
7.348120e+00 1.177040e+01 
7.382790e+00 1.165668e+01 
7.417460e+00 1.154511e+01 
7.452720e+00 1.143346e+01 
7.487390e+00 1.132510e+01 
7.522650e+00 1.121632e+01 
7.557320e+00 1.111080e+01 
7.591990e+00 1.100665e+01 
7.627250e+00 1.090208e+01 
7.662510e+00 1.079885e+01 
7.697180e+00 1.069870e+01 
7.731850e+00 1.059983e+01 
7.766510e+00 1.050222e+01 
7.801180e+00 1.040579e+01 
7.836440e+00 1.030912e+01 
7.871110e+00 1.021535e+01 
7.906380e+00 1.012114e+01 
7.941040e+00 1.002970e+01 
7.976310e+00 9.937916e+00 
8.011570e+00 9.847452e+00 
8.046240e+00 9.759581e+00 
8.080900e+00 9.672789e+00 
8.115570e+00 9.587029e+00 
8.150830e+00 9.500937e+00 
8.185500e+00 9.417296e+00 
8.220770e+00 9.333222e+00 
8.255430e+00 9.251581e+00 
8.290100e+00 9.171124e+00 
8.324770e+00 9.091634e+00 
8.359430e+00 9.013091e+00 
8.394700e+00 8.934098e+00 
8.429960e+00 8.856117e+00 
8.464630e+00 8.780393e+00 
8.499890e+00 8.704269e+00 
8.534560e+00 8.630280e+00 
8.569200e+00 8.557194e+00 
