# Parameters:
# omega_b = 0.022500, omega_m = 0.137500, n_s = 0.950000, h = 69.033203, w = -1.000000,sigma_8 = 0.710000
# z = 0.500000
#
# k[1/Mpc] # P(k):
8.694000e-04 8.232342e+03 
2.077466e-03 1.729454e+04 
3.285532e-03 2.425897e+04 
4.493598e-03 2.953475e+04 
5.701664e-03 3.339176e+04 
6.909730e-03 3.607343e+04 
8.117797e-03 3.784323e+04 
9.325863e-03 3.883810e+04 
1.053393e-02 3.919321e+04 
1.174199e-02 3.903259e+04 
1.295006e-02 3.843513e+04 
1.415813e-02 3.750650e+04 
1.536619e-02 3.633486e+04 
1.657426e-02 3.498122e+04 
1.778233e-02 3.350015e+04 
1.899039e-02 3.197195e+04 
2.019846e-02 3.043897e+04 
2.140652e-02 2.893784e+04 
2.261459e-02 2.748831e+04 
2.382266e-02 2.611471e+04 
2.503072e-02 2.483350e+04 
2.623879e-02 2.365055e+04 
2.744685e-02 2.256742e+04 
2.865492e-02 2.158515e+04 
2.986299e-02 2.069932e+04 
3.100100e-02 1.995054e+04 
3.220400e-02 1.924210e+04 
3.288100e-02 1.887975e+04 
3.424300e-02 1.822056e+04 
3.555100e-02 1.766244e+04 
3.686000e-02 1.716773e+04 
3.795000e-02 1.679503e+04 
3.929100e-02 1.637852e+04 
4.039800e-02 1.605864e+04 
4.164000e-02 1.571794e+04 
4.294400e-02 1.536873e+04 
4.415000e-02 1.505073e+04 
4.542900e-02 1.470508e+04 
4.660900e-02 1.438223e+04 
4.782300e-02 1.402998e+04 
4.892900e-02 1.370057e+04 
5.031200e-02 1.327170e+04 
5.155900e-02 1.286813e+04 
5.238100e-02 1.259597e+04 
5.378200e-02 1.212485e+04 
5.513400e-02 1.166343e+04 
5.627600e-02 1.127307e+04 
5.735300e-02 1.090917e+04 
5.870100e-02 1.046392e+04 
5.988700e-02 1.008630e+04 
6.113500e-02 9.705958e+03 
6.225900e-02 9.381058e+03 
6.340100e-02 9.070334e+03 
6.480200e-02 8.715948e+03 
6.601100e-02 8.436815e+03 
6.725500e-02 8.174804e+03 
6.829100e-02 7.977644e+03 
6.958600e-02 7.752752e+03 
7.071100e-02 7.578263e+03 
7.192300e-02 7.408999e+03 
7.307400e-02 7.264506e+03 
7.412300e-02 7.144961e+03 
7.550400e-02 7.004069e+03 
7.663100e-02 6.898952e+03 
7.791200e-02 6.790093e+03 
7.912700e-02 6.693384e+03 
8.027600e-02 6.605279e+03 
8.138400e-02 6.522095e+03 
8.272200e-02 6.422261e+03 
8.406100e-02 6.321296e+03 
8.534100e-02 6.220757e+03 
8.653800e-02 6.122396e+03 
8.759800e-02 6.032791e+03 
8.900300e-02 5.909485e+03 
9.009000e-02 5.809943e+03 
9.113300e-02 5.710737e+03 
9.239600e-02 5.588891e+03 
9.358000e-02 5.472050e+03 
9.496100e-02 5.332662e+03 
9.608400e-02 5.219505e+03 
9.727500e-02 5.100556e+03 
9.852600e-02 4.975483e+03 
9.973800e-02 4.857577e+03 
1.009000e-01 4.747542e+03 
1.020900e-01 4.639007e+03 
1.034000e-01 4.524620e+03 
1.046000e-01 4.424567e+03 
1.057200e-01 4.337538e+03 
1.069100e-01 4.249250e+03 
1.082500e-01 4.157706e+03 
1.093900e-01 4.085556e+03 
1.105400e-01 4.016693e+03 
1.116900e-01 3.954611e+03 
1.129600e-01 3.889581e+03 
1.142000e-01 3.832124e+03 
1.153300e-01 3.782578e+03 
1.166400e-01 3.728918e+03 
1.177800e-01 3.684967e+03 
1.190000e-01 3.639800e+03 
1.201200e-01 3.599796e+03 
1.213400e-01 3.557332e+03 
1.227100e-01 3.509916e+03 
1.238900e-01 3.469661e+03 
1.250700e-01 3.428799e+03 
1.263200e-01 3.385687e+03 
1.275500e-01 3.342397e+03 
1.287500e-01 3.299991e+03 
1.299900e-01 3.255364e+03 
1.311300e-01 3.214126e+03 
1.323500e-01 3.169270e+03 
1.335900e-01 3.123710e+03 
1.347100e-01 3.082121e+03 
1.359800e-01 3.035340e+03 
1.372100e-01 2.989738e+03 
1.384300e-01 2.945171e+03 
1.395700e-01 2.903567e+03 
1.407700e-01 2.860660e+03 
1.420300e-01 2.816053e+03 
1.432800e-01 2.772811e+03 
1.444500e-01 2.733377e+03 
1.456300e-01 2.694443e+03 
1.468900e-01 2.654410e+03 
1.480500e-01 2.618527e+03 
1.491700e-01 2.585097e+03 
1.503800e-01 2.550380e+03 
1.516400e-01 2.515272e+03 
1.528200e-01 2.484327e+03 
1.540200e-01 2.453473e+03 
1.551900e-01 2.425192e+03 
1.564300e-01 2.396093e+03 
1.576600e-01 2.368363e+03 
1.588700e-01 2.342291e+03 
1.600900e-01 2.316541e+03 
1.612700e-01 2.292901e+03 
1.625400e-01 2.267930e+03 
1.637600e-01 2.244573e+03 
1.649500e-01 2.222305e+03 
1.662200e-01 2.198944e+03 
1.674000e-01 2.177466e+03 
1.685000e-01 2.157778e+03 
1.697500e-01 2.135478e+03 
1.710300e-01 2.112751e+03 
1.722200e-01 2.091997e+03 
1.734400e-01 2.070299e+03 
1.746400e-01 2.049293e+03 
1.758700e-01 2.027876e+03 
1.770900e-01 2.006483e+03 
1.782700e-01 1.986140e+03 
1.794600e-01 1.965608e+03 
1.807000e-01 1.944336e+03 
1.819100e-01 1.923931e+03 
1.830100e-01 1.905422e+03 
1.842200e-01 1.885341e+03 
1.855000e-01 1.864459e+03 
1.867000e-01 1.845169e+03 
1.879200e-01 1.825878e+03 
1.890900e-01 1.807704e+03 
1.902800e-01 1.789668e+03 
1.915200e-01 1.771177e+03 
1.926900e-01 1.754079e+03 
1.939000e-01 1.736911e+03 
1.951700e-01 1.719181e+03 
1.963100e-01 1.703611e+03 
1.975100e-01 1.687729e+03 
1.987800e-01 1.671182e+03 
2.000100e-01 1.655505e+03 
2.012500e-01 1.640167e+03 
2.023400e-01 1.626879e+03 
2.036100e-01 1.611671e+03 
2.048900e-01 1.596777e+03 
2.060400e-01 1.583592e+03 
2.072200e-01 1.570262e+03 
2.084200e-01 1.557019e+03 
2.096900e-01 1.543209e+03 
2.109200e-01 1.530031e+03 
2.121100e-01 1.517489e+03 
2.132700e-01 1.505431e+03 
2.145200e-01 1.492620e+03 
2.157200e-01 1.480478e+03 
2.168800e-01 1.468891e+03 
2.180700e-01 1.457164e+03 
2.193400e-01 1.444803e+03 
2.206000e-01 1.432676e+03 
2.217500e-01 1.421758e+03 
2.229500e-01 1.410514e+03 
2.241400e-01 1.399462e+03 
2.253500e-01 1.388372e+03 
2.264900e-01 1.378058e+03 
2.277100e-01 1.367143e+03 
2.289900e-01 1.355825e+03 
2.301500e-01 1.345703e+03 
2.313600e-01 1.335279e+03 
2.325600e-01 1.325070e+03 
2.337700e-01 1.314908e+03 
2.350000e-01 1.304712e+03 
2.362000e-01 1.294904e+03 
2.374100e-01 1.285152e+03 
2.386500e-01 1.275286e+03 
2.399100e-01 1.265391e+03 
2.410400e-01 1.256668e+03 
2.422500e-01 1.247445e+03 
2.435000e-01 1.238036e+03 
2.447300e-01 1.228905e+03 
2.458700e-01 1.220587e+03 
2.470600e-01 1.212005e+03 
2.483300e-01 1.202959e+03 
2.495600e-01 1.194336e+03 
2.507600e-01 1.186064e+03 
2.519600e-01 1.177889e+03 
2.532200e-01 1.169409e+03 
2.543700e-01 1.161793e+03 
2.555500e-01 1.154088e+03 
2.568000e-01 1.146021e+03 
2.580100e-01 1.138305e+03 
2.592400e-01 1.130585e+03 
2.604100e-01 1.123341e+03 
2.616100e-01 1.115995e+03 
2.628400e-01 1.108551e+03 
2.640600e-01 1.101279e+03 
2.652200e-01 1.094453e+03 
2.664300e-01 1.087410e+03 
2.676500e-01 1.080390e+03 
2.688400e-01 1.073634e+03 
2.700700e-01 1.066739e+03 
2.712400e-01 1.060252e+03 
2.724800e-01 1.053451e+03 
2.736700e-01 1.046998e+03 
2.748800e-01 1.040509e+03 
2.761000e-01 1.034037e+03 
2.773200e-01 1.027636e+03 
2.785400e-01 1.021305e+03 
2.797000e-01 1.015352e+03 
2.808900e-01 1.009308e+03 
2.821400e-01 1.003027e+03 
2.833900e-01 9.968147e+02 
2.845500e-01 9.911048e+02 
2.857800e-01 9.851129e+02 
2.870300e-01 9.790885e+02 
2.882100e-01 9.734608e+02 
2.893900e-01 9.678849e+02 
2.906300e-01 9.620831e+02 
2.918900e-01 9.562502e+02 
2.930500e-01 9.509350e+02 
2.942500e-01 9.454899e+02 
2.954200e-01 9.402300e+02 
2.966500e-01 9.347557e+02 
2.978900e-01 9.292935e+02 
2.990400e-01 9.242776e+02 
3.002700e-01 9.189644e+02 
3.015100e-01 9.136618e+02 
3.026800e-01 9.087077e+02 
3.038500e-01 9.038007e+02 
3.050300e-01 8.988988e+02 
3.062600e-01 8.938406e+02 
3.075000e-01 8.887918e+02 
3.087000e-01 8.839535e+02 
3.099100e-01 8.791218e+02 
3.111200e-01 8.743398e+02 
3.123100e-01 8.696871e+02 
3.135300e-01 8.649623e+02 
3.147300e-01 8.603591e+02 
3.159900e-01 8.555722e+02 
3.171800e-01 8.511011e+02 
3.183700e-01 8.466756e+02 
3.196300e-01 8.420341e+02 
3.208400e-01 8.376191e+02 
3.220300e-01 8.333171e+02 
3.232000e-01 8.291392e+02 
3.244300e-01 8.247926e+02 
3.256700e-01 8.204517e+02 
3.269200e-01 8.161169e+02 
3.280800e-01 8.121305e+02 
3.292500e-01 8.081590e+02 
3.304800e-01 8.040256e+02 
3.317100e-01 7.999300e+02 
3.328900e-01 7.960358e+02 
3.340700e-01 7.921756e+02 
3.353600e-01 7.880120e+02 
3.365300e-01 7.842765e+02 
3.377100e-01 7.805413e+02 
3.389200e-01 7.767445e+02 
3.401600e-01 7.728879e+02 
3.413700e-01 7.691711e+02 
3.425300e-01 7.656473e+02 
3.437700e-01 7.619128e+02 
3.449800e-01 7.583005e+02 
3.461800e-01 7.547487e+02 
3.473600e-01 7.512926e+02 
3.485800e-01 7.477667e+02 
3.498100e-01 7.442426e+02 
3.510200e-01 7.408053e+02 
3.522000e-01 7.374812e+02 
3.533900e-01 7.341566e+02 
3.546400e-01 7.307186e+02 
3.558400e-01 7.274474e+02 
3.570600e-01 7.241493e+02 
3.582700e-01 7.209055e+02 
3.595000e-01 7.176356e+02 
3.607100e-01 7.144569e+02 
3.618900e-01 7.113910e+02 
3.631200e-01 7.082212e+02 
3.643200e-01 7.051541e+02 
3.655500e-01 7.020359e+02 
3.667300e-01 6.990686e+02 
3.679500e-01 6.960544e+02 
3.691900e-01 6.930158e+02 
3.703600e-01 6.901716e+02 
3.715700e-01 6.872533e+02 
3.727700e-01 6.843820e+02 
3.739900e-01 6.814899e+02 
3.752000e-01 6.786512e+02 
3.763900e-01 6.758813e+02 
3.775800e-01 6.731327e+02 
3.788200e-01 6.702912e+02 
3.800300e-01 6.675403e+02 
3.812100e-01 6.648777e+02 
3.824200e-01 6.621678e+02 
3.836100e-01 6.595231e+02 
3.848600e-01 6.567667e+02 
3.860400e-01 6.541847e+02 
3.872400e-01 6.515787e+02 
3.884600e-01 6.489750e+02 
3.896500e-01 6.464642e+02 
3.908700e-01 6.439095e+02 
3.920600e-01 6.414364e+02 
3.933100e-01 6.388584e+02 
3.945300e-01 6.363615e+02 
3.957200e-01 6.339430e+02 
3.969300e-01 6.315017e+02 
3.981700e-01 6.290188e+02 
3.993500e-01 6.266735e+02 
4.094840e-01 6.071831e+02 
4.272360e-01 5.760012e+02 
4.454600e-01 5.470471e+02 
4.630560e-01 5.216162e+02 
4.804610e-01 4.985625e+02 
4.980690e-01 4.771648e+02 
5.159230e-01 4.571833e+02 
5.317440e-01 4.408280e+02 
5.489640e-01 4.242445e+02 
5.671990e-01 4.079800e+02 
5.838690e-01 3.942085e+02 
6.018840e-01 3.804004e+02 
6.202330e-01 3.673905e+02 
6.379250e-01 3.556645e+02 
6.545410e-01 3.454090e+02 
6.714560e-01 3.356140e+02 
6.892080e-01 3.259698e+02 
7.066010e-01 3.170661e+02 
7.240540e-01 3.086692e+02 
7.420450e-01 3.005628e+02 
7.593780e-01 2.931227e+02 
7.764720e-01 2.861859e+02 
7.942840e-01 2.793405e+02 
8.116170e-01 2.729589e+02 
8.288310e-01 2.669497e+02 
8.462240e-01 2.611112e+02 
8.631980e-01 2.556637e+02 
8.810700e-01 2.501749e+02 
8.989410e-01 2.449224e+02 
9.166330e-01 2.399120e+02 
9.345640e-01 2.349978e+02 
9.515980e-01 2.305005e+02 
9.688720e-01 2.261108e+02 
9.865640e-01 2.217560e+02 
1.031870e+00 2.112135e+02 
1.063490e+00 2.043387e+02 
1.097920e+00 1.972397e+02 
1.134370e+00 1.901564e+02 
1.167730e+00 1.839742e+02 
1.203830e+00 1.776374e+02 
1.240470e+00 1.715300e+02 
1.275790e+00 1.659037e+02 
1.309140e+00 1.608537e+02 
1.342970e+00 1.559191e+02 
1.378420e+00 1.510073e+02 
1.413200e+00 1.463807e+02 
1.448110e+00 1.419354e+02 
1.484090e+00 1.375584e+02 
1.518820e+00 1.335048e+02 
1.552880e+00 1.296748e+02 
1.588630e+00 1.258286e+02 
1.623230e+00 1.222594e+02 
1.657720e+00 1.188373e+02 
1.692450e+00 1.155482e+02 
1.726400e+00 1.124243e+02 
1.762200e+00 1.092520e+02 
1.797880e+00 1.062197e+02 
1.833270e+00 1.033291e+02 
1.869070e+00 1.005106e+02 
1.903200e+00 9.793000e+01 
1.937740e+00 9.540855e+01 
1.973190e+00 9.291066e+01 
2.007440e+00 9.058215e+01 
2.042160e+00 8.830489e+01 
2.077900e+00 8.603847e+01 
2.112390e+00 8.393997e+01 
2.146220e+00 8.193034e+01 
2.181600e+00 7.991169e+01 
2.216930e+00 7.796443e+01 
2.250760e+00 7.615725e+01 
2.286500e+00 7.430875e+01 
2.321770e+00 7.254687e+01 
2.355950e+00 7.089547e+01 
2.391280e+00 6.923656e+01 
2.426240e+00 6.765179e+01 
2.460670e+00 6.613850e+01 
2.495640e+00 6.464427e+01 
2.531080e+00 6.318462e+01 
2.566220e+00 6.177794e+01 
2.600830e+00 6.043455e+01 
2.635080e+00 5.914610e+01 
2.670340e+00 5.785275e+01 
2.705970e+00 5.659071e+01 
2.740040e+00 5.542130e+01 
2.774520e+00 5.426462e+01 
2.809730e+00 5.312054e+01 
2.844390e+00 5.202818e+01 
2.879960e+00 5.093742e+01 
2.914860e+00 4.989653e+01 
2.949410e+00 4.889592e+01 
2.984440e+00 4.791148e+01 
3.019760e+00 4.694385e+01 
3.054730e+00 4.601151e+01 
3.089030e+00 4.512187e+01 
3.124060e+00 4.423854e+01 
3.159560e+00 4.336796e+01 
3.194710e+00 4.252938e+01 
3.229010e+00 4.173322e+01 
3.263320e+00 4.095332e+01 
3.297930e+00 4.018820e+01 
3.332830e+00 3.943789e+01 
3.368040e+00 3.869983e+01 
3.403300e+00 3.797953e+01 
3.438450e+00 3.727834e+01 
3.473060e+00 3.660561e+01 
3.508440e+00 3.593786e+01 
3.543110e+00 3.530005e+01 
3.577470e+00 3.468101e+01 
3.613040e+00 3.405697e+01 
3.648120e+00 3.345844e+01 
3.682910e+00 3.287812e+01 
3.718050e+00 3.230348e+01 
3.753320e+00 3.174232e+01 
3.787980e+00 3.120621e+01 
3.822290e+00 3.068705e+01 
3.857020e+00 3.017223e+01 
3.891920e+00 2.966704e+01 
3.926650e+00 2.917588e+01 
3.961970e+00 2.868803e+01 
3.997360e+00 2.821041e+01 
4.031670e+00 2.775822e+01 
4.066330e+00 2.731238e+01 
4.101420e+00 2.687126e+01 
4.136200e+00 2.644332e+01 
4.170810e+00 2.602698e+01 
4.206250e+00 2.561079e+01 
4.241580e+00 2.520530e+01 
4.276300e+00 2.481505e+01 
4.310970e+00 2.443351e+01 
4.346120e+00 2.405543e+01 
4.380600e+00 2.369314e+01 
4.414730e+00 2.334202e+01 
4.450350e+00 2.298261e+01 
4.485320e+00 2.263726e+01 
4.519810e+00 2.230442e+01 
4.555430e+00 2.196813e+01 
4.590870e+00 2.164081e+01 
4.625480e+00 2.132828e+01 
4.659910e+00 2.102361e+01 
4.695230e+00 2.071701e+01 
4.729960e+00 2.042153e+01 
4.764450e+00 2.013374e+01 
4.799530e+00 1.984657e+01 
4.834910e+00 1.956267e+01 
4.869700e+00 1.929076e+01 
4.904370e+00 1.902528e+01 
4.939450e+00 1.876174e+01 
4.973940e+00 1.850737e+01 
5.008430e+00 1.825776e+01 
5.043810e+00 1.800640e+01 
5.078840e+00 1.776216e+01 
5.113500e+00 1.752499e+01 
5.148890e+00 1.728909e+01 
5.184210e+00 1.705810e+01 
5.219060e+00 1.683407e+01 
5.253660e+00 1.661485e+01 
5.288570e+00 1.639764e+01 
5.323420e+00 1.618551e+01 
5.358440e+00 1.597705e+01 
5.393590e+00 1.577153e+01 
5.428310e+00 1.557204e+01 
5.462800e+00 1.537728e+01 
5.497640e+00 1.518394e+01 
5.532670e+00 1.499409e+01 
5.567280e+00 1.481011e+01 
5.602000e+00 1.462866e+01 
5.637270e+00 1.444675e+01 
5.672410e+00 1.426843e+01 
5.707020e+00 1.409574e+01 
5.742040e+00 1.392516e+01 
5.777430e+00 1.375590e+01 
5.812210e+00 1.359231e+01 
5.846820e+00 1.343210e+01 
5.881610e+00 1.327365e+01 
5.916510e+00 1.311727e+01 
5.951600e+00 1.296307e+01 
5.986560e+00 1.281214e+01 
6.021830e+00 1.266230e+01 
6.056490e+00 1.251772e+01 
6.091160e+00 1.237562e+01 
6.125830e+00 1.223574e+01 
6.161090e+00 1.209569e+01 
6.195760e+00 1.196010e+01 
6.230420e+00 1.182662e+01 
6.265690e+00 1.169290e+01 
6.300950e+00 1.156192e+01 
6.335620e+00 1.143509e+01 
6.370880e+00 1.130804e+01 
6.405550e+00 1.118535e+01 
6.440220e+00 1.106462e+01 
6.475480e+00 1.094366e+01 
6.510150e+00 1.082666e+01 
6.544810e+00 1.071179e+01 
6.580080e+00 1.059660e+01 
6.614750e+00 1.048502e+01 
6.649410e+00 1.037510e+01 
6.684080e+00 1.026673e+01 
6.719340e+00 1.015809e+01 
6.754010e+00 1.005294e+01 
6.788680e+00 9.949610e+00 
6.823940e+00 9.846003e+00 
6.859800e+00 9.742139e+00 
6.894470e+00 9.643480e+00 
6.929140e+00 9.546305e+00 
6.963800e+00 9.450492e+00 
6.999070e+00 9.354340e+00 
7.033730e+00 9.261195e+00 
7.068400e+00 9.169284e+00 
7.103660e+00 9.077081e+00 
7.138330e+00 8.987912e+00 
7.173600e+00 8.898971e+00 
7.208260e+00 8.812737e+00 
7.243530e+00 8.726153e+00 
7.277600e+00 8.643447e+00 
7.312860e+00 8.558820e+00 
7.348120e+00 8.475317e+00 
7.382790e+00 8.394289e+00 
7.417460e+00 8.314789e+00 
7.452720e+00 8.235235e+00 
7.487390e+00 8.158021e+00 
7.522650e+00 8.080502e+00 
7.557320e+00 8.005296e+00 
7.591990e+00 7.931056e+00 
7.627250e+00 7.856510e+00 
7.662510e+00 7.782915e+00 
7.697180e+00 7.711712e+00 
7.731850e+00 7.641490e+00 
7.766510e+00 7.572156e+00 
7.801180e+00 7.503655e+00 
7.836440e+00 7.434876e+00 
7.871110e+00 7.368097e+00 
7.906380e+00 7.300995e+00 
7.941040e+00 7.235860e+00 
7.976310e+00 7.170540e+00 
8.011570e+00 7.106221e+00 
8.046240e+00 7.043741e+00 
8.080900e+00 6.982022e+00 
8.115570e+00 6.921057e+00 
8.150830e+00 6.859943e+00 
8.185500e+00 6.800565e+00 
8.220770e+00 6.740873e+00 
8.255430e+00 6.682903e+00 
8.290100e+00 6.625751e+00 
8.324770e+00 6.569279e+00 
8.359430e+00 6.513474e+00 
8.394700e+00 6.457345e+00 
8.429960e+00 6.401977e+00 
8.464630e+00 6.348254e+00 
8.499890e+00 6.294243e+00 
8.534560e+00 6.241740e+00 
8.569200e+00 6.189873e+00 
