# Parameters:
# omega_b = 0.022500, omega_m = 0.137500, n_s = 0.950000, h = 69.033203, w = -1.000000,sigma_8 = 0.755000
# z = 0.260000
#
# k[1/Mpc] # P(k):
8.694000e-04 1.184598e+04 
2.077466e-03 2.494995e+04 
3.285532e-03 3.501729e+04 
4.493598e-03 4.263283e+04 
5.701664e-03 4.819360e+04 
6.909730e-03 5.205306e+04 
8.117797e-03 5.459421e+04 
9.325863e-03 5.601560e+04 
1.053393e-02 5.651331e+04 
1.174199e-02 5.626565e+04 
1.295006e-02 5.538934e+04 
1.415813e-02 5.403556e+04 
1.536619e-02 5.233184e+04 
1.657426e-02 5.036770e+04 
1.778233e-02 4.822111e+04 
1.899039e-02 4.600786e+04 
2.019846e-02 4.378931e+04 
2.140652e-02 4.161953e+04 
2.261459e-02 3.952616e+04 
2.382266e-02 3.754353e+04 
2.503072e-02 3.569727e+04 
2.623879e-02 3.399391e+04 
2.744685e-02 3.243558e+04 
2.865492e-02 3.102397e+04 
2.986299e-02 2.975210e+04 
3.100100e-02 2.867735e+04 
3.220400e-02 2.766066e+04 
3.288100e-02 2.714123e+04 
3.424300e-02 2.619487e+04 
3.555100e-02 2.539267e+04 
3.686000e-02 2.468034e+04 
3.795000e-02 2.414280e+04 
3.929100e-02 2.353972e+04 
4.039800e-02 2.307542e+04 
4.164000e-02 2.258015e+04 
4.294400e-02 2.207087e+04 
4.415000e-02 2.160775e+04 
4.542900e-02 2.110366e+04 
4.660900e-02 2.063618e+04 
4.782300e-02 2.012678e+04 
4.892900e-02 1.965071e+04 
5.031200e-02 1.903476e+04 
5.155900e-02 1.845815e+04 
5.238100e-02 1.806951e+04 
5.378200e-02 1.740109e+04 
5.513400e-02 1.674787e+04 
5.627600e-02 1.619579e+04 
5.735300e-02 1.568308e+04 
5.870100e-02 1.505865e+04 
5.988700e-02 1.452856e+04 
6.113500e-02 1.399486e+04 
6.225900e-02 1.353668e+04 
6.340100e-02 1.310076e+04 
6.480200e-02 1.260309e+04 
6.601100e-02 1.220922e+04 
6.725500e-02 1.183784e+04 
6.829100e-02 1.155769e+04 
6.958600e-02 1.123809e+04 
7.071100e-02 1.098931e+04 
7.192300e-02 1.074628e+04 
7.307400e-02 1.053720e+04 
7.412300e-02 1.036354e+04 
7.550400e-02 1.015858e+04 
7.663100e-02 1.000470e+04 
7.791200e-02 9.844686e+03 
7.912700e-02 9.700928e+03 
8.027600e-02 9.571413e+03 
8.138400e-02 9.449378e+03 
8.272200e-02 9.302572e+03 
8.406100e-02 9.154855e+03 
8.534100e-02 9.008223e+03 
8.653800e-02 8.866971e+03 
8.759800e-02 8.738652e+03 
8.900300e-02 8.562056e+03 
9.009000e-02 8.419328e+03 
9.113300e-02 8.278445e+03 
9.239600e-02 8.106240e+03 
9.358000e-02 7.941700e+03 
9.496100e-02 7.745765e+03 
9.608400e-02 7.587296e+03 
9.727500e-02 7.421251e+03 
9.852600e-02 7.247532e+03 
9.973800e-02 7.083946e+03 
1.009000e-01 6.931408e+03 
1.020900e-01 6.781752e+03 
1.034000e-01 6.624070e+03 
1.046000e-01 6.486186e+03 
1.057200e-01 6.365550e+03 
1.069100e-01 6.243146e+03 
1.082500e-01 6.116866e+03 
1.093900e-01 6.016715e+03 
1.105400e-01 5.920744e+03 
1.116900e-01 5.833867e+03 
1.129600e-01 5.742584e+03 
1.142000e-01 5.660924e+03 
1.153300e-01 5.590260e+03 
1.166400e-01 5.513344e+03 
1.177800e-01 5.449655e+03 
1.190000e-01 5.383871e+03 
1.201200e-01 5.324894e+03 
1.213400e-01 5.262162e+03 
1.227100e-01 5.192082e+03 
1.238900e-01 5.132566e+03 
1.250700e-01 5.072084e+03 
1.263200e-01 5.008264e+03 
1.275500e-01 4.944163e+03 
1.287500e-01 4.881856e+03 
1.299900e-01 4.817029e+03 
1.311300e-01 4.757273e+03 
1.323500e-01 4.692491e+03 
1.335900e-01 4.627153e+03 
1.347100e-01 4.568104e+03 
1.359800e-01 4.502054e+03 
1.372100e-01 4.438410e+03 
1.384300e-01 4.376405e+03 
1.395700e-01 4.319018e+03 
1.407700e-01 4.259876e+03 
1.420300e-01 4.199070e+03 
1.432800e-01 4.140086e+03 
1.444500e-01 4.086336e+03 
1.456300e-01 4.033235e+03 
1.468900e-01 3.978797e+03 
1.480500e-01 3.930029e+03 
1.491700e-01 3.884346e+03 
1.503800e-01 3.836584e+03 
1.516400e-01 3.788177e+03 
1.528200e-01 3.745127e+03 
1.540200e-01 3.702188e+03 
1.551900e-01 3.662069e+03 
1.564300e-01 3.620592e+03 
1.576600e-01 3.580905e+03 
1.588700e-01 3.543397e+03 
1.600900e-01 3.506307e+03 
1.612700e-01 3.471502e+03 
1.625400e-01 3.434736e+03 
1.637600e-01 3.400354e+03 
1.649500e-01 3.367580e+03 
1.662200e-01 3.333187e+03 
1.674000e-01 3.301519e+03 
1.685000e-01 3.272489e+03 
1.697500e-01 3.239759e+03 
1.710300e-01 3.206549e+03 
1.722200e-01 3.176220e+03 
1.734400e-01 3.144934e+03 
1.746400e-01 3.114656e+03 
1.758700e-01 3.083998e+03 
1.770900e-01 3.053797e+03 
1.782700e-01 3.025072e+03 
1.794600e-01 2.996178e+03 
1.807000e-01 2.966305e+03 
1.819100e-01 2.937642e+03 
1.830100e-01 2.911658e+03 
1.842200e-01 2.883464e+03 
1.855000e-01 2.854146e+03 
1.867000e-01 2.827327e+03 
1.879200e-01 2.800497e+03 
1.890900e-01 2.775199e+03 
1.902800e-01 2.750019e+03 
1.915200e-01 2.724193e+03 
1.926900e-01 2.700285e+03 
1.939000e-01 2.676204e+03 
1.951700e-01 2.651326e+03 
1.963100e-01 2.629421e+03 
1.975100e-01 2.606934e+03 
1.987800e-01 2.583499e+03 
2.000100e-01 2.561250e+03 
2.012500e-01 2.539384e+03 
2.023400e-01 2.520436e+03 
2.036100e-01 2.498702e+03 
2.048900e-01 2.477242e+03 
2.060400e-01 2.458241e+03 
2.072200e-01 2.439024e+03 
2.084200e-01 2.419880e+03 
2.096900e-01 2.399912e+03 
2.109200e-01 2.380855e+03 
2.121100e-01 2.362655e+03 
2.132700e-01 2.345153e+03 
2.145200e-01 2.326554e+03 
2.157200e-01 2.308944e+03 
2.168800e-01 2.292148e+03 
2.180700e-01 2.275146e+03 
2.193400e-01 2.257247e+03 
2.206000e-01 2.239731e+03 
2.217500e-01 2.223958e+03 
2.229500e-01 2.207713e+03 
2.241400e-01 2.191816e+03 
2.253500e-01 2.175863e+03 
2.264900e-01 2.161026e+03 
2.277100e-01 2.145407e+03 
2.289900e-01 2.129303e+03 
2.301500e-01 2.114900e+03 
2.313600e-01 2.100064e+03 
2.325600e-01 2.085524e+03 
2.337700e-01 2.071049e+03 
2.350000e-01 2.056523e+03 
2.362000e-01 2.042575e+03 
2.374100e-01 2.028739e+03 
2.386500e-01 2.014739e+03 
2.399100e-01 2.000696e+03 
2.410400e-01 1.988225e+03 
2.422500e-01 1.975026e+03 
2.435000e-01 1.961561e+03 
2.447300e-01 1.948511e+03 
2.458700e-01 1.936706e+03 
2.470600e-01 1.924525e+03 
2.483300e-01 1.911683e+03 
2.495600e-01 1.899428e+03 
2.507600e-01 1.887655e+03 
2.519600e-01 1.876020e+03 
2.532200e-01 1.863948e+03 
2.543700e-01 1.853093e+03 
2.555500e-01 1.842103e+03 
2.568000e-01 1.830596e+03 
2.580100e-01 1.819588e+03 
2.592400e-01 1.808571e+03 
2.604100e-01 1.798229e+03 
2.616100e-01 1.787740e+03 
2.628400e-01 1.777110e+03 
2.640600e-01 1.766658e+03 
2.652200e-01 1.756819e+03 
2.664300e-01 1.746668e+03 
2.676500e-01 1.736547e+03 
2.688400e-01 1.726767e+03 
2.700700e-01 1.716759e+03 
2.712400e-01 1.707343e+03 
2.724800e-01 1.697472e+03 
2.736700e-01 1.688131e+03 
2.748800e-01 1.678764e+03 
2.761000e-01 1.669421e+03 
2.773200e-01 1.660179e+03 
2.785400e-01 1.651002e+03 
2.797000e-01 1.642297e+03 
2.808900e-01 1.633458e+03 
2.821400e-01 1.624272e+03 
2.833900e-01 1.615188e+03 
2.845500e-01 1.606906e+03 
2.857800e-01 1.598213e+03 
2.870300e-01 1.589472e+03 
2.882100e-01 1.581306e+03 
2.893900e-01 1.573163e+03 
2.906300e-01 1.564661e+03 
2.918900e-01 1.556113e+03 
2.930500e-01 1.548322e+03 
2.942500e-01 1.540356e+03 
2.954200e-01 1.532707e+03 
2.966500e-01 1.524746e+03 
2.978900e-01 1.516802e+03 
2.990400e-01 1.509506e+03 
3.002700e-01 1.501769e+03 
3.015100e-01 1.494042e+03 
3.026800e-01 1.486823e+03 
3.038500e-01 1.479671e+03 
3.050300e-01 1.472525e+03 
3.062600e-01 1.465066e+03 
3.075000e-01 1.457621e+03 
3.087000e-01 1.450485e+03 
3.099100e-01 1.443358e+03 
3.111200e-01 1.436341e+03 
3.123100e-01 1.429577e+03 
3.135300e-01 1.422707e+03 
3.147300e-01 1.416013e+03 
3.159900e-01 1.409052e+03 
3.171800e-01 1.402529e+03 
3.183700e-01 1.396058e+03 
3.196300e-01 1.389270e+03 
3.208400e-01 1.382814e+03 
3.220300e-01 1.376522e+03 
3.232000e-01 1.370377e+03 
3.244300e-01 1.363971e+03 
3.256700e-01 1.357572e+03 
3.269200e-01 1.351183e+03 
3.280800e-01 1.345306e+03 
3.292500e-01 1.339503e+03 
3.304800e-01 1.333479e+03 
3.317100e-01 1.327510e+03 
3.328900e-01 1.321834e+03 
3.340700e-01 1.316208e+03 
3.353600e-01 1.310094e+03 
3.365300e-01 1.304592e+03 
3.377100e-01 1.299090e+03 
3.389200e-01 1.293497e+03 
3.401600e-01 1.287816e+03 
3.413700e-01 1.282338e+03 
3.425300e-01 1.277142e+03 
3.437700e-01 1.271636e+03 
3.449800e-01 1.266310e+03 
3.461800e-01 1.261073e+03 
3.473600e-01 1.255989e+03 
3.485800e-01 1.250832e+03 
3.498100e-01 1.245678e+03 
3.510200e-01 1.240651e+03 
3.522000e-01 1.235789e+03 
3.533900e-01 1.230926e+03 
3.546400e-01 1.225835e+03 
3.558400e-01 1.220988e+03 
3.570600e-01 1.216100e+03 
3.582700e-01 1.211293e+03 
3.595000e-01 1.206447e+03 
3.607100e-01 1.201733e+03 
3.618900e-01 1.197184e+03 
3.631200e-01 1.192480e+03 
3.643200e-01 1.187929e+03 
3.655500e-01 1.183301e+03 
3.667300e-01 1.178898e+03 
3.679500e-01 1.174445e+03 
3.691900e-01 1.169956e+03 
3.703600e-01 1.165754e+03 
3.715700e-01 1.161443e+03 
3.727700e-01 1.157201e+03 
3.739900e-01 1.152915e+03 
3.752000e-01 1.148683e+03 
3.763900e-01 1.144553e+03 
3.775800e-01 1.140456e+03 
3.788200e-01 1.136219e+03 
3.800300e-01 1.132118e+03 
3.812100e-01 1.128157e+03 
3.824200e-01 1.124131e+03 
3.836100e-01 1.120202e+03 
3.848600e-01 1.116107e+03 
3.860400e-01 1.112272e+03 
3.872400e-01 1.108400e+03 
3.884600e-01 1.104479e+03 
3.896500e-01 1.100677e+03 
3.908700e-01 1.096808e+03 
3.920600e-01 1.093064e+03 
3.933100e-01 1.089160e+03 
3.945300e-01 1.085379e+03 
3.957200e-01 1.081731e+03 
3.969300e-01 1.078052e+03 
3.981700e-01 1.074310e+03 
3.993500e-01 1.070776e+03 
4.094840e-01 1.041525e+03 
4.272360e-01 9.939785e+02 
4.454600e-01 9.497174e+02 
4.630560e-01 9.104595e+02 
4.804610e-01 8.747188e+02 
4.980690e-01 8.413069e+02 
5.159230e-01 8.098742e+02 
5.317440e-01 7.840409e+02 
5.489640e-01 7.576987e+02 
5.671990e-01 7.318945e+02 
5.838690e-01 7.098043e+02 
6.018840e-01 6.875091e+02 
6.202330e-01 6.662936e+02 
6.379250e-01 6.470511e+02 
6.545410e-01 6.301282e+02 
6.714560e-01 6.137992e+02 
6.892080e-01 5.975677e+02 
7.066010e-01 5.825321e+02 
7.240540e-01 5.682107e+02 
7.420450e-01 5.540864e+02 
7.593780e-01 5.411589e+02 
7.764720e-01 5.289804e+02 
7.942840e-01 5.168086e+02 
8.116170e-01 5.054182e+02 
8.288310e-01 4.944692e+02 
8.462240e-01 4.838544e+02 
8.631980e-01 4.739093e+02 
8.810700e-01 4.637955e+02 
8.989410e-01 4.539689e+02 
9.166330e-01 4.445760e+02 
9.345640e-01 4.353454e+02 
9.515980e-01 4.268756e+02 
9.688720e-01 4.185308e+02 
9.865640e-01 4.102023e+02 
1.031870e+00 3.899415e+02 
1.063490e+00 3.765725e+02 
1.097920e+00 3.628162e+02 
1.134370e+00 3.489698e+02 
1.167730e+00 3.369382e+02 
1.203830e+00 3.245008e+02 
1.240470e+00 3.125784e+02 
1.275790e+00 3.015742e+02 
1.309140e+00 2.916903e+02 
1.342970e+00 2.820979e+02 
1.378420e+00 2.725165e+02 
1.413200e+00 2.635284e+02 
1.448110e+00 2.549009e+02 
1.484090e+00 2.464130e+02 
1.518820e+00 2.386248e+02 
1.552880e+00 2.312516e+02 
1.588630e+00 2.238716e+02 
1.623230e+00 2.170278e+02 
1.657720e+00 2.105046e+02 
1.692450e+00 2.042169e+02 
1.726400e+00 1.982641e+02 
1.762200e+00 1.922804e+02 
1.797880e+00 1.865595e+02 
1.833270e+00 1.811241e+02 
1.869070e+00 1.758551e+02 
1.903200e+00 1.710016e+02 
1.937740e+00 1.662840e+02 
1.973190e+00 1.616468e+02 
2.007440e+00 1.573318e+02 
2.042160e+00 1.531156e+02 
2.077900e+00 1.489338e+02 
2.112390e+00 1.450457e+02 
2.146220e+00 1.413866e+02 
2.181600e+00 1.376711e+02 
2.216930e+00 1.341071e+02 
2.250760e+00 1.308171e+02 
2.286500e+00 1.274594e+02 
2.321770e+00 1.242598e+02 
2.355950e+00 1.212609e+02 
2.391280e+00 1.182808e+02 
2.426240e+00 1.154317e+02 
2.460670e+00 1.127166e+02 
2.495640e+00 1.100467e+02 
2.531080e+00 1.074265e+02 
2.566220e+00 1.049107e+02 
2.600830e+00 1.025110e+02 
2.635080e+00 1.002101e+02 
2.670340e+00 9.792593e+01 
2.705970e+00 9.569051e+01 
2.740040e+00 9.361838e+01 
2.774520e+00 9.158002e+01 
2.809730e+00 8.956983e+01 
2.844390e+00 8.765386e+01 
2.879960e+00 8.574358e+01 
2.914860e+00 8.392337e+01 
2.949410e+00 8.217391e+01 
2.984440e+00 8.044893e+01 
3.019760e+00 7.875831e+01 
3.054730e+00 7.713278e+01 
3.089030e+00 7.559043e+01 
3.124060e+00 7.405908e+01 
3.159560e+00 7.254966e+01 
3.194710e+00 7.110213e+01 
3.229010e+00 6.972973e+01 
3.263320e+00 6.838234e+01 
3.297930e+00 6.706230e+01 
3.332830e+00 6.577107e+01 
3.368040e+00 6.450673e+01 
3.403300e+00 6.327711e+01 
3.438450e+00 6.208146e+01 
3.473060e+00 6.093486e+01 
3.508440e+00 5.979100e+01 
3.543110e+00 5.869919e+01 
3.577470e+00 5.764272e+01 
3.613040e+00 5.657825e+01 
3.648120e+00 5.555826e+01 
3.682910e+00 5.457138e+01 
3.718050e+00 5.359781e+01 
3.753320e+00 5.264675e+01 
3.787980e+00 5.173753e+01 
3.822290e+00 5.085837e+01 
3.857020e+00 4.998846e+01 
3.891920e+00 4.913640e+01 
3.926650e+00 4.831071e+01 
3.961970e+00 4.749042e+01 
3.997360e+00 4.668680e+01 
4.031670e+00 4.592644e+01 
4.066330e+00 4.517848e+01 
4.101420e+00 4.443852e+01 
4.136200e+00 4.372007e+01 
4.170810e+00 4.302120e+01 
4.206250e+00 4.232078e+01 
4.241580e+00 4.163815e+01 
4.276300e+00 4.098629e+01 
4.310970e+00 4.035181e+01 
4.346120e+00 3.972074e+01 
4.380600e+00 3.911208e+01 
4.414730e+00 3.852248e+01 
4.450350e+00 3.792611e+01 
4.485320e+00 3.735310e+01 
4.519810e+00 3.679689e+01 
4.555430e+00 3.623319e+01 
4.590870e+00 3.568590e+01 
4.625480e+00 3.516603e+01 
4.659910e+00 3.465926e+01 
4.695230e+00 3.414921e+01 
4.729960e+00 3.365767e+01 
4.764450e+00 3.317993e+01 
4.799530e+00 3.270484e+01 
4.834910e+00 3.223520e+01 
4.869700e+00 3.178201e+01 
4.904370e+00 3.133903e+01 
4.939450e+00 3.089997e+01 
4.973940e+00 3.047787e+01 
5.008430e+00 3.006370e+01 
5.043810e+00 2.964798e+01 
5.078840e+00 2.924480e+01 
5.113500e+00 2.885331e+01 
5.148890e+00 2.846061e+01 
5.184210e+00 2.807599e+01 
5.219060e+00 2.770385e+01 
5.253660e+00 2.734217e+01 
5.288570e+00 2.698380e+01 
5.323420e+00 2.663330e+01 
5.358440e+00 2.628829e+01 
5.393590e+00 2.594817e+01 
5.428310e+00 2.561783e+01 
5.462800e+00 2.529523e+01 
5.497640e+00 2.497500e+01 
5.532670e+00 2.465976e+01 
5.567280e+00 2.435403e+01 
5.602000e+00 2.405253e+01 
5.637270e+00 2.375246e+01 
5.672410e+00 2.345880e+01 
5.707020e+00 2.317443e+01 
5.742040e+00 2.289134e+01 
5.777430e+00 2.261003e+01 
5.812210e+00 2.233816e+01 
5.846820e+00 2.207293e+01 
5.881610e+00 2.181088e+01 
5.916510e+00 2.155227e+01 
5.951600e+00 2.129733e+01 
5.986560e+00 2.104782e+01 
6.021830e+00 2.080014e+01 
6.056490e+00 2.056047e+01 
6.091160e+00 2.032436e+01 
6.125830e+00 2.009194e+01 
6.161090e+00 1.985959e+01 
6.195760e+00 1.963534e+01 
6.230420e+00 1.941460e+01 
6.265690e+00 1.919349e+01 
6.300950e+00 1.897694e+01 
6.335620e+00 1.876727e+01 
6.370880e+00 1.855725e+01 
6.405550e+00 1.835368e+01 
6.440220e+00 1.815306e+01 
6.475480e+00 1.795207e+01 
6.510150e+00 1.775769e+01 
6.544810e+00 1.756690e+01 
6.580080e+00 1.737560e+01 
6.614750e+00 1.719031e+01 
6.649410e+00 1.700846e+01 
6.684080e+00 1.682930e+01 
6.719340e+00 1.664972e+01 
6.754010e+00 1.647563e+01 
6.788680e+00 1.630387e+01 
6.823940e+00 1.613168e+01 
6.859800e+00 1.595907e+01 
6.894470e+00 1.579518e+01 
6.929140e+00 1.563379e+01 
6.963800e+00 1.547467e+01 
6.999070e+00 1.531499e+01 
7.033730e+00 1.516005e+01 
7.068400e+00 1.500719e+01 
7.103660e+00 1.485386e+01 
7.138330e+00 1.470541e+01 
7.173600e+00 1.455701e+01 
7.208260e+00 1.441314e+01 
7.243530e+00 1.426870e+01 
7.277600e+00 1.413093e+01 
7.312860e+00 1.399014e+01 
7.348120e+00 1.385123e+01 
7.382790e+00 1.371645e+01 
7.417460e+00 1.358390e+01 
7.452720e+00 1.345111e+01 
7.487390e+00 1.332225e+01 
7.522650e+00 1.319289e+01 
7.557320e+00 1.306779e+01 
7.591990e+00 1.294444e+01 
7.627250e+00 1.282060e+01 
7.662510e+00 1.269835e+01 
7.697180e+00 1.257915e+01 
7.731850e+00 1.246124e+01 
7.766510e+00 1.234485e+01 
7.801180e+00 1.222988e+01 
7.836440e+00 1.211515e+01 
7.871110e+00 1.200422e+01 
7.906380e+00 1.189276e+01 
7.941040e+00 1.178457e+01 
7.976310e+00 1.167581e+01 
8.011570e+00 1.156839e+01 
8.046240e+00 1.146406e+01 
8.080900e+00 1.136101e+01 
8.115570e+00 1.125916e+01 
8.150830e+00 1.115680e+01 
8.185500e+00 1.105736e+01 
8.220770e+00 1.095741e+01 
8.255430e+00 1.086036e+01 
8.290100e+00 1.076488e+01 
8.324770e+00 1.067056e+01 
8.359430e+00 1.057737e+01 
8.394700e+00 1.048365e+01 
8.429960e+00 1.039106e+01 
8.464630e+00 1.030106e+01 
8.499890e+00 1.021060e+01 
8.534560e+00 1.012268e+01 
8.569200e+00 1.003584e+01 
