# Parameters:
# omega_b = 0.022500, omega_m = 0.137500, n_s = 0.950000, h = 69.033203, w = -1.000000,sigma_8 = 0.755000
# z = 0.120000
#
# k[1/Mpc] # P(k):
8.694000e-04 1.367667e+04 
2.077466e-03 2.882267e+04 
3.285532e-03 4.045071e+04 
4.493598e-03 4.924135e+04 
5.701664e-03 5.565012e+04 
6.909730e-03 6.009048e+04 
8.117797e-03 6.300775e+04 
9.325863e-03 6.463424e+04 
1.053393e-02 6.519471e+04 
1.174199e-02 6.489593e+04 
1.295006e-02 6.387090e+04 
1.415813e-02 6.229572e+04 
1.536619e-02 6.031970e+04 
1.657426e-02 5.804426e+04 
1.778233e-02 5.556058e+04 
1.899039e-02 5.300061e+04 
2.019846e-02 5.043357e+04 
2.140652e-02 4.792339e+04 
2.261459e-02 4.550439e+04 
2.382266e-02 4.321545e+04 
2.503072e-02 4.108394e+04 
2.623879e-02 3.911808e+04 
2.744685e-02 3.732149e+04 
2.865492e-02 3.569404e+04 
2.986299e-02 3.422822e+04 
3.100100e-02 3.298984e+04 
3.220400e-02 3.181926e+04 
3.288100e-02 3.122045e+04 
3.424300e-02 3.013058e+04 
3.555100e-02 2.920644e+04 
3.686000e-02 2.838502e+04 
3.795000e-02 2.776897e+04 
3.929100e-02 2.707365e+04 
4.039800e-02 2.653507e+04 
4.164000e-02 2.596645e+04 
4.294400e-02 2.537697e+04 
4.415000e-02 2.484453e+04 
4.542900e-02 2.426475e+04 
4.660900e-02 2.372785e+04 
4.782300e-02 2.313844e+04 
4.892900e-02 2.259544e+04 
5.031200e-02 2.188992e+04 
5.155900e-02 2.122812e+04 
5.238100e-02 2.078377e+04 
5.378200e-02 2.001920e+04 
5.513400e-02 1.927419e+04 
5.627600e-02 1.864463e+04 
5.735300e-02 1.805973e+04 
5.870100e-02 1.734714e+04 
5.988700e-02 1.674420e+04 
6.113500e-02 1.613554e+04 
6.225900e-02 1.561675e+04 
6.340100e-02 1.511952e+04 
6.480200e-02 1.454986e+04 
6.601100e-02 1.410158e+04 
6.725500e-02 1.367884e+04 
6.829100e-02 1.335988e+04 
6.958600e-02 1.299148e+04 
7.071100e-02 1.270544e+04 
7.192300e-02 1.242640e+04 
7.307400e-02 1.218501e+04 
7.412300e-02 1.198354e+04 
7.550400e-02 1.174567e+04 
7.663100e-02 1.156690e+04 
7.791200e-02 1.137892e+04 
7.912700e-02 1.121190e+04 
8.027600e-02 1.106044e+04 
8.138400e-02 1.091810e+04 
8.272200e-02 1.074781e+04 
8.406100e-02 1.057531e+04 
8.534100e-02 1.040616e+04 
8.653800e-02 1.024208e+04 
8.759800e-02 1.009427e+04 
8.900300e-02 9.892942e+03 
9.009000e-02 9.730100e+03 
9.113300e-02 9.570270e+03 
9.239600e-02 9.375222e+03 
9.358000e-02 9.188650e+03 
9.496100e-02 8.967456e+03 
9.608400e-02 8.788520e+03 
9.727500e-02 8.600857e+03 
9.852600e-02 8.404188e+03 
9.973800e-02 8.220034e+03 
1.009000e-01 8.049202e+03 
1.020900e-01 7.880330e+03 
1.034000e-01 7.702223e+03 
1.046000e-01 7.546358e+03 
1.057200e-01 7.410611e+03 
1.069100e-01 7.272603e+03 
1.082500e-01 7.128567e+03 
1.093900e-01 7.014251e+03 
1.105400e-01 6.904653e+03 
1.116900e-01 6.804725e+03 
1.129600e-01 6.699591e+03 
1.142000e-01 6.605482e+03 
1.153300e-01 6.523433e+03 
1.166400e-01 6.433155e+03 
1.177800e-01 6.358918e+03 
1.190000e-01 6.282488e+03 
1.201200e-01 6.213476e+03 
1.213400e-01 6.139981e+03 
1.227100e-01 6.058123e+03 
1.238900e-01 5.988655e+03 
1.250700e-01 5.918217e+03 
1.263200e-01 5.844352e+03 
1.275500e-01 5.771168e+03 
1.287500e-01 5.699584e+03 
1.299900e-01 5.624409e+03 
1.311300e-01 5.555824e+03 
1.323500e-01 5.482506e+03 
1.335900e-01 5.408517e+03 
1.347100e-01 5.341599e+03 
1.359800e-01 5.266888e+03 
1.372100e-01 5.195187e+03 
1.384300e-01 5.125274e+03 
1.395700e-01 5.060450e+03 
1.407700e-01 4.993665e+03 
1.420300e-01 4.925331e+03 
1.432800e-01 4.859030e+03 
1.444500e-01 4.798453e+03 
1.456300e-01 4.738595e+03 
1.468900e-01 4.677169e+03 
1.480500e-01 4.622118e+03 
1.491700e-01 4.570324e+03 
1.503800e-01 4.515889e+03 
1.516400e-01 4.460708e+03 
1.528200e-01 4.411606e+03 
1.540200e-01 4.362627e+03 
1.551900e-01 4.316829e+03 
1.564300e-01 4.269469e+03 
1.576600e-01 4.223825e+03 
1.588700e-01 4.180286e+03 
1.600900e-01 4.137231e+03 
1.612700e-01 4.096811e+03 
1.625400e-01 4.054112e+03 
1.637600e-01 4.014205e+03 
1.649500e-01 3.976178e+03 
1.662200e-01 3.936274e+03 
1.674000e-01 3.899541e+03 
1.685000e-01 3.865868e+03 
1.697500e-01 3.828074e+03 
1.710300e-01 3.789898e+03 
1.722200e-01 3.755031e+03 
1.734400e-01 3.719065e+03 
1.746400e-01 3.684257e+03 
1.758700e-01 3.649013e+03 
1.770900e-01 3.614304e+03 
1.782700e-01 3.581289e+03 
1.794600e-01 3.548229e+03 
1.807000e-01 3.514144e+03 
1.819100e-01 3.481437e+03 
1.830100e-01 3.451957e+03 
1.842200e-01 3.419995e+03 
1.855000e-01 3.386755e+03 
1.867000e-01 3.356345e+03 
1.879200e-01 3.325919e+03 
1.890900e-01 3.297186e+03 
1.902800e-01 3.268361e+03 
1.915200e-01 3.238796e+03 
1.926900e-01 3.211475e+03 
1.939000e-01 3.184119e+03 
1.951700e-01 3.155855e+03 
1.963100e-01 3.130901e+03 
1.975100e-01 3.105109e+03 
1.987800e-01 3.078229e+03 
2.000100e-01 3.052639e+03 
2.012500e-01 3.027330e+03 
2.023400e-01 3.005398e+03 
2.036100e-01 2.980282e+03 
2.048900e-01 2.955643e+03 
2.060400e-01 2.933826e+03 
2.072200e-01 2.911761e+03 
2.084200e-01 2.889783e+03 
2.096900e-01 2.866859e+03 
2.109200e-01 2.844980e+03 
2.121100e-01 2.824091e+03 
2.132700e-01 2.804004e+03 
2.145200e-01 2.782656e+03 
2.157200e-01 2.762471e+03 
2.168800e-01 2.743230e+03 
2.180700e-01 2.723752e+03 
2.193400e-01 2.703267e+03 
2.206000e-01 2.683262e+03 
2.217500e-01 2.665246e+03 
2.229500e-01 2.646690e+03 
2.241400e-01 2.628619e+03 
2.253500e-01 2.610488e+03 
2.264900e-01 2.593622e+03 
2.277100e-01 2.575927e+03 
2.289900e-01 2.557748e+03 
2.301500e-01 2.541488e+03 
2.313600e-01 2.524741e+03 
2.325600e-01 2.508438e+03 
2.337700e-01 2.492207e+03 
2.350000e-01 2.475917e+03 
2.362000e-01 2.460395e+03 
2.374100e-01 2.445140e+03 
2.386500e-01 2.429703e+03 
2.399100e-01 2.414217e+03 
2.410400e-01 2.400635e+03 
2.422500e-01 2.386281e+03 
2.435000e-01 2.371635e+03 
2.447300e-01 2.357428e+03 
2.458700e-01 2.344522e+03 
2.470600e-01 2.331206e+03 
2.483300e-01 2.317166e+03 
2.495600e-01 2.303767e+03 
2.507600e-01 2.290891e+03 
2.519600e-01 2.278166e+03 
2.532200e-01 2.264964e+03 
2.543700e-01 2.253062e+03 
2.555500e-01 2.240991e+03 
2.568000e-01 2.228353e+03 
2.580100e-01 2.216262e+03 
2.592400e-01 2.204020e+03 
2.604100e-01 2.192465e+03 
2.616100e-01 2.180745e+03 
2.628400e-01 2.168868e+03 
2.640600e-01 2.157265e+03 
2.652200e-01 2.146371e+03 
2.664300e-01 2.135131e+03 
2.676500e-01 2.123925e+03 
2.688400e-01 2.112952e+03 
2.700700e-01 2.101633e+03 
2.712400e-01 2.090983e+03 
2.724800e-01 2.079818e+03 
2.736700e-01 2.069153e+03 
2.748800e-01 2.058354e+03 
2.761000e-01 2.047583e+03 
2.773200e-01 2.036929e+03 
2.785400e-01 2.026380e+03 
2.797000e-01 2.016439e+03 
2.808900e-01 2.006344e+03 
2.821400e-01 1.995853e+03 
2.833900e-01 1.985468e+03 
2.845500e-01 1.975762e+03 
2.857800e-01 1.965575e+03 
2.870300e-01 1.955333e+03 
2.882100e-01 1.945764e+03 
2.893900e-01 1.936242e+03 
2.906300e-01 1.926312e+03 
2.918900e-01 1.916327e+03 
2.930500e-01 1.907228e+03 
2.942500e-01 1.897894e+03 
2.954200e-01 1.888842e+03 
2.966500e-01 1.879420e+03 
2.978900e-01 1.870017e+03 
2.990400e-01 1.861383e+03 
3.002700e-01 1.852205e+03 
3.015100e-01 1.843030e+03 
3.026800e-01 1.834458e+03 
3.038500e-01 1.825966e+03 
3.050300e-01 1.817481e+03 
3.062600e-01 1.808674e+03 
3.075000e-01 1.799883e+03 
3.087000e-01 1.791457e+03 
3.099100e-01 1.783042e+03 
3.111200e-01 1.774697e+03 
3.123100e-01 1.766550e+03 
3.135300e-01 1.758276e+03 
3.147300e-01 1.750214e+03 
3.159900e-01 1.741830e+03 
3.171800e-01 1.734056e+03 
3.183700e-01 1.726399e+03 
3.196300e-01 1.718368e+03 
3.208400e-01 1.710728e+03 
3.220300e-01 1.703283e+03 
3.232000e-01 1.695948e+03 
3.244300e-01 1.688276e+03 
3.256700e-01 1.680613e+03 
3.269200e-01 1.672960e+03 
3.280800e-01 1.665922e+03 
3.292500e-01 1.658976e+03 
3.304800e-01 1.651766e+03 
3.317100e-01 1.644622e+03 
3.328900e-01 1.637830e+03 
3.340700e-01 1.631096e+03 
3.353600e-01 1.623823e+03 
3.365300e-01 1.617293e+03 
3.377100e-01 1.610764e+03 
3.389200e-01 1.604127e+03 
3.401600e-01 1.597386e+03 
3.413700e-01 1.590883e+03 
3.425300e-01 1.584716e+03 
3.437700e-01 1.578179e+03 
3.449800e-01 1.571856e+03 
3.461800e-01 1.565639e+03 
3.473600e-01 1.559569e+03 
3.485800e-01 1.553330e+03 
3.498100e-01 1.547093e+03 
3.510200e-01 1.541011e+03 
3.522000e-01 1.535128e+03 
3.533900e-01 1.529244e+03 
3.546400e-01 1.523196e+03 
3.558400e-01 1.517442e+03 
3.570600e-01 1.511642e+03 
3.582700e-01 1.505937e+03 
3.595000e-01 1.500187e+03 
3.607100e-01 1.494593e+03 
3.618900e-01 1.489195e+03 
3.631200e-01 1.483614e+03 
3.643200e-01 1.478214e+03 
3.655500e-01 1.472724e+03 
3.667300e-01 1.467500e+03 
3.679500e-01 1.462165e+03 
3.691900e-01 1.456787e+03 
3.703600e-01 1.451752e+03 
3.715700e-01 1.446587e+03 
3.727700e-01 1.441506e+03 
3.739900e-01 1.436389e+03 
3.752000e-01 1.431370e+03 
3.763900e-01 1.426473e+03 
3.775800e-01 1.421614e+03 
3.788200e-01 1.416591e+03 
3.800300e-01 1.411728e+03 
3.812100e-01 1.407002e+03 
3.824200e-01 1.402179e+03 
3.836100e-01 1.397472e+03 
3.848600e-01 1.392566e+03 
3.860400e-01 1.387971e+03 
3.872400e-01 1.383333e+03 
3.884600e-01 1.378666e+03 
3.896500e-01 1.374152e+03 
3.908700e-01 1.369560e+03 
3.920600e-01 1.365114e+03 
3.933100e-01 1.360481e+03 
3.945300e-01 1.355993e+03 
3.957200e-01 1.351664e+03 
3.969300e-01 1.347299e+03 
3.981700e-01 1.342860e+03 
3.993500e-01 1.338667e+03 
4.094840e-01 1.303696e+03 
4.272360e-01 1.247093e+03 
4.454600e-01 1.193802e+03 
4.630560e-01 1.146664e+03 
4.804610e-01 1.103492e+03 
4.980690e-01 1.062951e+03 
5.159230e-01 1.024823e+03 
5.317440e-01 9.930880e+02 
5.489640e-01 9.608684e+02 
5.671990e-01 9.289082e+02 
5.838690e-01 9.015057e+02 
6.018840e-01 8.737242e+02 
6.202330e-01 8.472233e+02 
6.379250e-01 8.231644e+02 
6.545410e-01 8.017318e+02 
6.714560e-01 7.810263e+02 
6.892080e-01 7.603798e+02 
7.066010e-01 7.411617e+02 
7.240540e-01 7.228153e+02 
7.420450e-01 7.046356e+02 
7.593780e-01 6.880077e+02 
7.764720e-01 6.722365e+02 
7.942840e-01 6.565323e+02 
8.116170e-01 6.417528e+02 
8.288310e-01 6.276406e+02 
8.462240e-01 6.138576e+02 
8.631980e-01 6.009561e+02 
8.810700e-01 5.877748e+02 
8.989410e-01 5.750716e+02 
9.166330e-01 5.628758e+02 
9.345640e-01 5.509160e+02 
9.515980e-01 5.399019e+02 
9.688720e-01 5.290334e+02 
9.865640e-01 5.182035e+02 
1.031870e+00 4.920410e+02 
1.063490e+00 4.748332e+02 
1.097920e+00 4.570351e+02 
1.134370e+00 4.391852e+02 
1.167730e+00 4.237280e+02 
1.203830e+00 4.078235e+02 
1.240470e+00 3.925371e+02 
1.275790e+00 3.784996e+02 
1.309140e+00 3.659085e+02 
1.342970e+00 3.537160e+02 
1.378420e+00 3.415489e+02 
1.413200e+00 3.301555e+02 
1.448110e+00 3.192322e+02 
1.484090e+00 3.084968e+02 
1.518820e+00 2.985967e+02 
1.552880e+00 2.893166e+02 
1.588630e+00 2.800226e+02 
1.623230e+00 2.714188e+02 
1.657720e+00 2.632269e+02 
1.692450e+00 2.553173e+02 
1.726400e+00 2.478888e+02 
1.762200e+00 2.403745e+02 
1.797880e+00 2.332064e+02 
1.833270e+00 2.264071e+02 
1.869070e+00 2.197864e+02 
1.903200e+00 2.137461e+02 
1.937740e+00 2.078623e+02 
1.973190e+00 2.020531e+02 
2.007440e+00 1.966600e+02 
2.042160e+00 1.914127e+02 
2.077900e+00 1.861828e+02 
2.112390e+00 1.813495e+02 
2.146220e+00 1.767730e+02 
2.181600e+00 1.721518e+02 
2.216930e+00 1.677244e+02 
2.250760e+00 1.636221e+02 
2.286500e+00 1.594329e+02 
2.321770e+00 1.554591e+02 
2.355950e+00 1.517345e+02 
2.391280e+00 1.480344e+02 
2.426240e+00 1.444794e+02 
2.460670e+00 1.410929e+02 
2.495640e+00 1.377778e+02 
2.531080e+00 1.345227e+02 
2.566220e+00 1.313969e+02 
2.600830e+00 1.284233e+02 
2.635080e+00 1.255828e+02 
2.670340e+00 1.227443e+02 
2.705970e+00 1.199653e+02 
2.740040e+00 1.173887e+02 
2.774520e+00 1.148546e+02 
2.809730e+00 1.123552e+02 
2.844390e+00 1.099726e+02 
2.879960e+00 1.075966e+02 
2.914860e+00 1.053321e+02 
2.949410e+00 1.031579e+02 
2.984440e+00 1.010242e+02 
3.019760e+00 9.893284e+01 
3.054730e+00 9.692108e+01 
3.089030e+00 9.499979e+01 
3.124060e+00 9.309187e+01 
3.159560e+00 9.121091e+01 
3.194710e+00 8.940671e+01 
3.229010e+00 8.769665e+01 
3.263320e+00 8.602710e+01 
3.297930e+00 8.439105e+01 
3.332830e+00 8.279019e+01 
3.368040e+00 8.121684e+01 
3.403300e+00 7.968244e+01 
3.438450e+00 7.819002e+01 
3.473060e+00 7.675863e+01 
3.508440e+00 7.533847e+01 
3.543110e+00 7.398274e+01 
3.577470e+00 7.267024e+01 
3.613040e+00 7.134753e+01 
3.648120e+00 7.007968e+01 
3.682910e+00 6.885278e+01 
3.718050e+00 6.764222e+01 
3.753320e+00 6.645917e+01 
3.787980e+00 6.532758e+01 
3.822290e+00 6.423321e+01 
3.857020e+00 6.315017e+01 
3.891920e+00 6.208683e+01 
3.926650e+00 6.105194e+01 
3.961970e+00 6.002545e+01 
3.997360e+00 5.902388e+01 
4.031670e+00 5.807604e+01 
4.066330e+00 5.714331e+01 
4.101420e+00 5.622041e+01 
4.136200e+00 5.532386e+01 
4.170810e+00 5.445162e+01 
4.206250e+00 5.358120e+01 
4.241580e+00 5.273343e+01 
4.276300e+00 5.191769e+01 
4.310970e+00 5.112024e+01 
4.346120e+00 5.033018e+01 
4.380600e+00 4.957335e+01 
4.414730e+00 4.883986e+01 
4.450350e+00 4.808936e+01 
4.485320e+00 4.736821e+01 
4.519810e+00 4.667340e+01 
4.555430e+00 4.597149e+01 
4.590870e+00 4.528732e+01 
4.625480e+00 4.463203e+01 
4.659910e+00 4.399321e+01 
4.695230e+00 4.335334e+01 
4.729960e+00 4.273711e+01 
4.764450e+00 4.213812e+01 
4.799530e+00 4.154239e+01 
4.834910e+00 4.095342e+01 
4.869700e+00 4.038737e+01 
4.904370e+00 3.983438e+01 
4.939450e+00 3.928530e+01 
4.973940e+00 3.875504e+01 
5.008430e+00 3.823470e+01 
5.043810e+00 3.771044e+01 
5.078840e+00 3.720084e+01 
5.113500e+00 3.670598e+01 
5.148890e+00 3.621466e+01 
5.184210e+00 3.573361e+01 
5.219060e+00 3.526743e+01 
5.253660e+00 3.481241e+01 
5.288570e+00 3.436152e+01 
5.323420e+00 3.391912e+01 
5.358440e+00 3.348212e+01 
5.393590e+00 3.305128e+01 
5.428310e+00 3.263592e+01 
5.462800e+00 3.223186e+01 
5.497640e+00 3.183071e+01 
5.532670e+00 3.143382e+01 
5.567280e+00 3.104821e+01 
5.602000e+00 3.066792e+01 
5.637270e+00 3.028773e+01 
5.672410e+00 2.991527e+01 
5.707020e+00 2.955458e+01 
5.742040e+00 2.919693e+01 
5.777430e+00 2.884179e+01 
5.812210e+00 2.849855e+01 
5.846820e+00 2.816369e+01 
5.881610e+00 2.783283e+01 
5.916510e+00 2.750628e+01 
5.951600e+00 2.718300e+01 
5.986560e+00 2.686598e+01 
6.021830e+00 2.655127e+01 
6.056490e+00 2.624852e+01 
6.091160e+00 2.595177e+01 
6.125830e+00 2.565962e+01 
6.161090e+00 2.536646e+01 
6.195760e+00 2.508126e+01 
6.230420e+00 2.480050e+01 
6.265690e+00 2.451925e+01 
6.300950e+00 2.424377e+01 
6.335620e+00 2.397701e+01 
6.370880e+00 2.370981e+01 
6.405550e+00 2.345175e+01 
6.440220e+00 2.319780e+01 
6.475480e+00 2.294338e+01 
6.510150e+00 2.269686e+01 
6.544810e+00 2.245387e+01 
6.580080e+00 2.221022e+01 
6.614750e+00 2.197423e+01 
6.649410e+00 2.174264e+01 
6.684080e+00 2.151449e+01 
6.719340e+00 2.128579e+01 
6.754010e+00 2.106403e+01 
6.788680e+00 2.084518e+01 
6.823940e+00 2.062576e+01 
6.859800e+00 2.040581e+01 
6.894470e+00 2.019694e+01 
6.929140e+00 1.999124e+01 
6.963800e+00 1.978843e+01 
6.999070e+00 1.958490e+01 
7.033730e+00 1.938739e+01 
7.068400e+00 1.919251e+01 
7.103660e+00 1.899703e+01 
7.138330e+00 1.880776e+01 
7.173600e+00 1.861847e+01 
7.208260e+00 1.843495e+01 
7.243530e+00 1.825072e+01 
7.277600e+00 1.807500e+01 
7.312860e+00 1.789543e+01 
7.348120e+00 1.771827e+01 
7.382790e+00 1.754637e+01 
7.417460e+00 1.737727e+01 
7.452720e+00 1.720783e+01 
7.487390e+00 1.704339e+01 
7.522650e+00 1.687832e+01 
7.557320e+00 1.671805e+01 
7.591990e+00 1.655980e+01 
7.627250e+00 1.640092e+01 
7.662510e+00 1.624409e+01 
7.697180e+00 1.609170e+01 
7.731850e+00 1.594117e+01 
7.766510e+00 1.579258e+01 
7.801180e+00 1.564579e+01 
7.836440e+00 1.549888e+01 
7.871110e+00 1.535653e+01 
7.906380e+00 1.521352e+01 
7.941040e+00 1.507472e+01 
7.976310e+00 1.493481e+01 
8.011570e+00 1.479618e+01 
8.046240e+00 1.466154e+01 
8.080900e+00 1.452856e+01 
8.115570e+00 1.439744e+01 
8.150830e+00 1.426680e+01 
8.185500e+00 1.413988e+01 
8.220770e+00 1.401231e+01 
8.255430e+00 1.388844e+01 
8.290100e+00 1.376537e+01 
8.324770e+00 1.364367e+01 
8.359430e+00 1.352344e+01 
8.394700e+00 1.340253e+01 
8.429960e+00 1.328338e+01 
8.464630e+00 1.316790e+01 
8.499890e+00 1.305182e+01 
8.534560e+00 1.293900e+01 
8.569200e+00 1.282758e+01 
