# Parameters:
# omega_b = 0.022500, omega_m = 0.137500, n_s = 0.950000, h = 69.033203, w = -1.000000,sigma_8 = 0.755000
# z = 0.390000
#
# k[1/Mpc] # P(k):
8.694000e-04 1.041813e+04 
2.077466e-03 2.195992e+04 
3.285532e-03 3.081710e+04 
4.493598e-03 3.751768e+04 
5.701664e-03 4.240486e+04 
6.909730e-03 4.579303e+04 
8.117797e-03 4.802186e+04 
9.325863e-03 4.926670e+04 
1.053393e-02 4.970001e+04 
1.174199e-02 4.947865e+04 
1.295006e-02 4.870350e+04 
1.415813e-02 4.750923e+04 
1.536619e-02 4.600827e+04 
1.657426e-02 4.427881e+04 
1.778233e-02 4.239088e+04 
1.899039e-02 4.044423e+04 
2.019846e-02 3.849084e+04 
2.140652e-02 3.657874e+04 
2.261459e-02 3.473460e+04 
2.382266e-02 3.298899e+04 
2.503072e-02 3.136285e+04 
2.623879e-02 2.986297e+04 
2.744685e-02 2.849128e+04 
2.865492e-02 2.724856e+04 
2.986299e-02 2.612909e+04 
3.100100e-02 2.518330e+04 
3.220400e-02 2.428921e+04 
3.288100e-02 2.383195e+04 
3.424300e-02 2.300001e+04 
3.555100e-02 2.229523e+04 
3.686000e-02 2.166989e+04 
3.795000e-02 2.119817e+04 
3.929100e-02 2.066981e+04 
4.039800e-02 2.026321e+04 
4.164000e-02 1.982961e+04 
4.294400e-02 1.938436e+04 
4.415000e-02 1.897888e+04 
4.542900e-02 1.853835e+04 
4.660900e-02 1.812788e+04 
4.782300e-02 1.768104e+04 
4.892900e-02 1.726390e+04 
5.031200e-02 1.672259e+04 
5.155900e-02 1.621503e+04 
5.238100e-02 1.587335e+04 
5.378200e-02 1.528370e+04 
5.513400e-02 1.470766e+04 
5.627600e-02 1.422107e+04 
5.735300e-02 1.376828e+04 
5.870100e-02 1.321530e+04 
5.988700e-02 1.274640e+04 
6.113500e-02 1.227418e+04 
6.225900e-02 1.187030e+04 
6.340100e-02 1.148429e+04 
6.480200e-02 1.104360e+04 
6.601100e-02 1.069564e+04 
6.725500e-02 1.036822e+04 
6.829100e-02 1.012118e+04 
6.958600e-02 9.838882e+03 
7.071100e-02 9.619145e+03 
7.192300e-02 9.405206e+03 
7.307400e-02 9.221805e+03 
7.412300e-02 9.069608e+03 
7.550400e-02 8.889804e+03 
7.663100e-02 8.755249e+03 
7.791200e-02 8.615581e+03 
7.912700e-02 8.491234e+03 
8.027600e-02 8.378282e+03 
8.138400e-02 8.271836e+03 
8.272200e-02 8.144319e+03 
8.406100e-02 8.015825e+03 
8.534100e-02 7.888266e+03 
8.653800e-02 7.764214e+03 
8.759800e-02 7.651430e+03 
8.900300e-02 7.496431e+03 
9.009000e-02 7.371421e+03 
9.113300e-02 7.247246e+03 
9.239600e-02 7.095001e+03 
9.358000e-02 6.949240e+03 
9.496100e-02 6.775620e+03 
9.608400e-02 6.634911e+03 
9.727500e-02 6.487196e+03 
9.852600e-02 6.332287e+03 
9.973800e-02 6.186400e+03 
1.009000e-01 6.050361e+03 
1.020900e-01 5.916535e+03 
1.034000e-01 5.775542e+03 
1.046000e-01 5.652273e+03 
1.057200e-01 5.544951e+03 
1.069100e-01 5.436045e+03 
1.082500e-01 5.323184e+03 
1.093900e-01 5.234022e+03 
1.105400e-01 5.148791e+03 
1.116900e-01 5.071663e+03 
1.129600e-01 4.990724e+03 
1.142000e-01 4.918757e+03 
1.153300e-01 4.856502e+03 
1.166400e-01 4.788771e+03 
1.177800e-01 4.732957e+03 
1.190000e-01 4.675437e+03 
1.201200e-01 4.624127e+03 
1.213400e-01 4.569597e+03 
1.227100e-01 4.508558e+03 
1.238900e-01 4.456731e+03 
1.250700e-01 4.404113e+03 
1.263200e-01 4.348645e+03 
1.275500e-01 4.293052e+03 
1.287500e-01 4.238787e+03 
1.299900e-01 4.181976e+03 
1.311300e-01 4.129643e+03 
1.323500e-01 4.072958e+03 
1.335900e-01 4.015639e+03 
1.347100e-01 3.963649e+03 
1.359800e-01 3.905367e+03 
1.372100e-01 3.848950e+03 
1.384300e-01 3.793937e+03 
1.395700e-01 3.742892e+03 
1.407700e-01 3.690267e+03 
1.420300e-01 3.635885e+03 
1.432800e-01 3.583144e+03 
1.444500e-01 3.535190e+03 
1.456300e-01 3.487823e+03 
1.468900e-01 3.439095e+03 
1.480500e-01 3.395397e+03 
1.491700e-01 3.354564e+03 
1.503800e-01 3.312002e+03 
1.516400e-01 3.268883e+03 
1.528200e-01 3.230581e+03 
1.540200e-01 3.192383e+03 
1.551900e-01 3.156979e+03 
1.564300e-01 3.120449e+03 
1.576600e-01 3.085474e+03 
1.588700e-01 3.052388e+03 
1.600900e-01 3.019691e+03 
1.612700e-01 2.989324e+03 
1.625400e-01 2.957248e+03 
1.637600e-01 2.927189e+03 
1.649500e-01 2.898501e+03 
1.662200e-01 2.868409e+03 
1.674000e-01 2.840771e+03 
1.685000e-01 2.815437e+03 
1.697500e-01 2.786843e+03 
1.710300e-01 2.757802e+03 
1.722200e-01 2.731280e+03 
1.734400e-01 2.703835e+03 
1.746400e-01 2.677272e+03 
1.758700e-01 2.650294e+03 
1.770900e-01 2.623549e+03 
1.782700e-01 2.598114e+03 
1.794600e-01 2.572550e+03 
1.807000e-01 2.546134e+03 
1.819100e-01 2.520790e+03 
1.830100e-01 2.497870e+03 
1.842200e-01 2.473012e+03 
1.855000e-01 2.447158e+03 
1.867000e-01 2.423345e+03 
1.879200e-01 2.399526e+03 
1.890900e-01 2.377074e+03 
1.902800e-01 2.354749e+03 
1.915200e-01 2.331855e+03 
1.926900e-01 2.310663e+03 
1.939000e-01 2.289316e+03 
1.951700e-01 2.267266e+03 
1.963100e-01 2.247868e+03 
1.975100e-01 2.228000e+03 
1.987800e-01 2.207298e+03 
2.000100e-01 2.187651e+03 
2.012500e-01 2.168361e+03 
2.023400e-01 2.151647e+03 
2.036100e-01 2.132497e+03 
2.048900e-01 2.113665e+03 
2.060400e-01 2.096992e+03 
2.072200e-01 2.080133e+03 
2.084200e-01 2.063351e+03 
2.096900e-01 2.045849e+03 
2.109200e-01 2.029145e+03 
2.121100e-01 2.013247e+03 
2.132700e-01 1.997962e+03 
2.145200e-01 1.981719e+03 
2.157200e-01 1.966347e+03 
2.168800e-01 1.951688e+03 
2.180700e-01 1.936850e+03 
2.193400e-01 1.921234e+03 
2.206000e-01 1.905960e+03 
2.217500e-01 1.892206e+03 
2.229500e-01 1.878041e+03 
2.241400e-01 1.864194e+03 
2.253500e-01 1.850300e+03 
2.264900e-01 1.837378e+03 
2.277100e-01 1.823747e+03 
2.289900e-01 1.809662e+03 
2.301500e-01 1.797065e+03 
2.313600e-01 1.784091e+03 
2.325600e-01 1.771441e+03 
2.337700e-01 1.758848e+03 
2.350000e-01 1.746211e+03 
2.362000e-01 1.734082e+03 
2.374100e-01 1.722057e+03 
2.386500e-01 1.709890e+03 
2.399100e-01 1.697686e+03 
2.410400e-01 1.686931e+03 
2.422500e-01 1.675560e+03 
2.435000e-01 1.663958e+03 
2.447300e-01 1.652704e+03 
2.458700e-01 1.642476e+03 
2.470600e-01 1.631923e+03 
2.483300e-01 1.620798e+03 
2.495600e-01 1.610189e+03 
2.507600e-01 1.600006e+03 
2.519600e-01 1.589942e+03 
2.532200e-01 1.579501e+03 
2.543700e-01 1.570106e+03 
2.555500e-01 1.560589e+03 
2.568000e-01 1.550626e+03 
2.580100e-01 1.541094e+03 
2.592400e-01 1.531533e+03 
2.604100e-01 1.522549e+03 
2.616100e-01 1.513436e+03 
2.628400e-01 1.504202e+03 
2.640600e-01 1.495138e+03 
2.652200e-01 1.486610e+03 
2.664300e-01 1.477812e+03 
2.676500e-01 1.469040e+03 
2.688400e-01 1.460564e+03 
2.700700e-01 1.451891e+03 
2.712400e-01 1.443730e+03 
2.724800e-01 1.435175e+03 
2.736700e-01 1.427040e+03 
2.748800e-01 1.418841e+03 
2.761000e-01 1.410664e+03 
2.773200e-01 1.402575e+03 
2.785400e-01 1.394557e+03 
2.797000e-01 1.386981e+03 
2.808900e-01 1.379288e+03 
2.821400e-01 1.371294e+03 
2.833900e-01 1.363385e+03 
2.845500e-01 1.356105e+03 
2.857800e-01 1.348464e+03 
2.870300e-01 1.340782e+03 
2.882100e-01 1.333605e+03 
2.893900e-01 1.326469e+03 
2.906300e-01 1.319031e+03 
2.918900e-01 1.311553e+03 
2.930500e-01 1.304738e+03 
2.942500e-01 1.297756e+03 
2.954200e-01 1.291012e+03 
2.966500e-01 1.283992e+03 
2.978900e-01 1.276987e+03 
2.990400e-01 1.270555e+03 
3.002700e-01 1.263732e+03 
3.015100e-01 1.256918e+03 
3.026800e-01 1.250552e+03 
3.038500e-01 1.244246e+03 
3.050300e-01 1.237945e+03 
3.062600e-01 1.231422e+03 
3.075000e-01 1.224909e+03 
3.087000e-01 1.218668e+03 
3.099100e-01 1.212435e+03 
3.111200e-01 1.206271e+03 
3.123100e-01 1.200283e+03 
3.135300e-01 1.194202e+03 
3.147300e-01 1.188277e+03 
3.159900e-01 1.182115e+03 
3.171800e-01 1.176354e+03 
3.183700e-01 1.170648e+03 
3.196300e-01 1.164663e+03 
3.208400e-01 1.158969e+03 
3.220300e-01 1.153421e+03 
3.232000e-01 1.148025e+03 
3.244300e-01 1.142407e+03 
3.256700e-01 1.136796e+03 
3.269200e-01 1.131192e+03 
3.280800e-01 1.126039e+03 
3.292500e-01 1.120913e+03 
3.304800e-01 1.115581e+03 
3.317100e-01 1.110298e+03 
3.328900e-01 1.105274e+03 
3.340700e-01 1.100293e+03 
3.353600e-01 1.094911e+03 
3.365300e-01 1.090078e+03 
3.377100e-01 1.085245e+03 
3.389200e-01 1.080332e+03 
3.401600e-01 1.075342e+03 
3.413700e-01 1.070530e+03 
3.425300e-01 1.065967e+03 
3.437700e-01 1.061132e+03 
3.449800e-01 1.056454e+03 
3.461800e-01 1.051854e+03 
3.473600e-01 1.047380e+03 
3.485800e-01 1.042818e+03 
3.498100e-01 1.038258e+03 
3.510200e-01 1.033810e+03 
3.522000e-01 1.029508e+03 
3.533900e-01 1.025206e+03 
3.546400e-01 1.020743e+03 
3.558400e-01 1.016496e+03 
3.570600e-01 1.012214e+03 
3.582700e-01 1.008003e+03 
3.595000e-01 1.003757e+03 
3.607100e-01 9.996277e+02 
3.618900e-01 9.956435e+02 
3.631200e-01 9.915241e+02 
3.643200e-01 9.875380e+02 
3.655500e-01 9.834855e+02 
3.667300e-01 9.796290e+02 
3.679500e-01 9.757149e+02 
3.691900e-01 9.717692e+02 
3.703600e-01 9.680759e+02 
3.715700e-01 9.642862e+02 
3.727700e-01 9.605576e+02 
3.739900e-01 9.567970e+02 
3.752000e-01 9.530971e+02 
3.763900e-01 9.494867e+02 
3.775800e-01 9.459042e+02 
3.788200e-01 9.422004e+02 
3.800300e-01 9.386148e+02 
3.812100e-01 9.351383e+02 
3.824200e-01 9.315963e+02 
3.836100e-01 9.281394e+02 
3.848600e-01 9.245364e+02 
3.860400e-01 9.211615e+02 
3.872400e-01 9.177551e+02 
3.884600e-01 9.143466e+02 
3.896500e-01 9.110576e+02 
3.908700e-01 9.077112e+02 
3.920600e-01 9.044717e+02 
3.933100e-01 9.010947e+02 
3.945300e-01 8.978240e+02 
3.957200e-01 8.946506e+02 
3.969300e-01 8.914459e+02 
3.981700e-01 8.881864e+02 
3.993500e-01 8.851076e+02 
4.094840e-01 8.594997e+02 
4.272360e-01 8.183340e+02 
4.454600e-01 7.799544e+02 
4.630560e-01 7.460568e+02 
4.804610e-01 7.152038e+02 
4.980690e-01 6.864694e+02 
5.159230e-01 6.595270e+02 
5.317440e-01 6.374329e+02 
5.489640e-01 6.149172e+02 
5.671990e-01 5.927670e+02 
5.838690e-01 5.739269e+02 
6.018840e-01 5.549669e+02 
6.202330e-01 5.369957e+02 
6.379250e-01 5.207165e+02 
6.545410e-01 5.063970e+02 
6.714560e-01 4.926566e+02 
6.892080e-01 4.790320e+02 
7.066010e-01 4.663742e+02 
7.240540e-01 4.543827e+02 
7.420450e-01 4.427179e+02 
7.593780e-01 4.319443e+02 
7.764720e-01 4.218548e+02 
7.942840e-01 4.118460e+02 
8.116170e-01 4.024478e+02 
8.288310e-01 3.935397e+02 
8.462240e-01 3.848532e+02 
8.631980e-01 3.767223e+02 
8.810700e-01 3.684975e+02 
8.989410e-01 3.605873e+02 
9.166330e-01 3.530149e+02 
9.345640e-01 3.455606e+02 
9.515980e-01 3.387269e+02 
9.688720e-01 3.320407e+02 
9.865640e-01 3.253886e+02 
1.031870e+00 3.092315e+02 
1.063490e+00 2.986653e+02 
1.097920e+00 2.877323e+02 
1.134370e+00 2.768341e+02 
1.167730e+00 2.673136e+02 
1.203830e+00 2.575561e+02 
1.240470e+00 2.481666e+02 
1.275790e+00 2.395270e+02 
1.309140e+00 2.317814e+02 
1.342970e+00 2.242409e+02 
1.378420e+00 2.167410e+02 
1.413200e+00 2.096892e+02 
1.448110e+00 2.029370e+02 
1.484090e+00 1.962941e+02 
1.518820e+00 1.901787e+02 
1.552880e+00 1.843927e+02 
1.588630e+00 1.786125e+02 
1.623230e+00 1.732525e+02 
1.657720e+00 1.681312e+02 
1.692450e+00 1.632125e+02 
1.726400e+00 1.585550e+02 
1.762200e+00 1.538456e+02 
1.797880e+00 1.493480e+02 
1.833270e+00 1.450776e+02 
1.869070e+00 1.409195e+02 
1.903200e+00 1.371172e+02 
1.937740e+00 1.334126e+02 
1.973190e+00 1.297555e+02 
2.007440e+00 1.263513e+02 
2.042160e+00 1.230237e+02 
2.077900e+00 1.197244e+02 
2.112390e+00 1.166706e+02 
2.146220e+00 1.137630e+02 
2.181600e+00 1.108380e+02 
2.216930e+00 1.080240e+02 
2.250760e+00 1.054214e+02 
2.286500e+00 1.027641e+02 
2.321770e+00 1.002310e+02 
2.355950e+00 9.785575e+01 
2.391280e+00 9.548271e+01 
2.426240e+00 9.322064e+01 
2.460670e+00 9.106354e+01 
2.495640e+00 8.893548e+01 
2.531080e+00 8.685666e+01 
2.566220e+00 8.485977e+01 
2.600830e+00 8.295428e+01 
2.635080e+00 8.112641e+01 
2.670340e+00 7.930165e+01 
2.705970e+00 7.752116e+01 
2.740040e+00 7.587180e+01 
2.774520e+00 7.424175e+01 
2.809730e+00 7.263385e+01 
2.844390e+00 7.110096e+01 
2.879960e+00 6.957213e+01 
2.914860e+00 6.811486e+01 
2.949410e+00 6.671524e+01 
2.984440e+00 6.534043e+01 
3.019760e+00 6.398810e+01 
3.054730e+00 6.268501e+01 
3.089030e+00 6.144821e+01 
3.124060e+00 6.021992e+01 
3.159560e+00 5.900885e+01 
3.194710e+00 5.784711e+01 
3.229010e+00 5.674544e+01 
3.263320e+00 5.566332e+01 
3.297930e+00 5.460295e+01 
3.332830e+00 5.356543e+01 
3.368040e+00 5.254639e+01 
3.403300e+00 5.155305e+01 
3.438450e+00 5.058692e+01 
3.473060e+00 4.966030e+01 
3.508440e+00 4.874006e+01 
3.543110e+00 4.786158e+01 
3.577470e+00 4.701117e+01 
3.613040e+00 4.615417e+01 
3.648120e+00 4.533275e+01 
3.682910e+00 4.453649e+01 
3.718050e+00 4.374822e+01 
3.753320e+00 4.297952e+01 
3.787980e+00 4.224663e+01 
3.822290e+00 4.153645e+01 
3.857020e+00 4.083147e+01 
3.891920e+00 4.014088e+01 
3.926650e+00 3.947153e+01 
3.961970e+00 3.880646e+01 
3.997360e+00 3.815474e+01 
4.031670e+00 3.753803e+01 
4.066330e+00 3.693124e+01 
4.101420e+00 3.633090e+01 
4.136200e+00 3.574782e+01 
4.170810e+00 3.518058e+01 
4.206250e+00 3.461416e+01 
4.241580e+00 3.406244e+01 
4.276300e+00 3.353233e+01 
4.310970e+00 3.301452e+01 
4.346120e+00 3.250120e+01 
4.380600e+00 3.200891e+01 
4.414730e+00 3.153186e+01 
4.450350e+00 3.104480e+01 
4.485320e+00 3.057680e+01 
4.519810e+00 3.012535e+01 
4.555430e+00 2.966905e+01 
4.590870e+00 2.922531e+01 
4.625480e+00 2.880235e+01 
4.659910e+00 2.839004e+01 
4.695230e+00 2.797493e+01 
4.729960e+00 2.757487e+01 
4.764450e+00 2.718530e+01 
4.799530e+00 2.679672e+01 
4.834910e+00 2.641258e+01 
4.869700e+00 2.604473e+01 
4.904370e+00 2.568561e+01 
4.939450e+00 2.532916e+01 
4.973940e+00 2.498523e+01 
5.008430e+00 2.464774e+01 
5.043810e+00 2.430797e+01 
5.078840e+00 2.397785e+01 
5.113500e+00 2.365729e+01 
5.148890e+00 2.333848e+01 
5.184210e+00 2.302632e+01 
5.219060e+00 2.272354e+01 
5.253660e+00 2.242718e+01 
5.288570e+00 2.213355e+01 
5.323420e+00 2.184694e+01 
5.358440e+00 2.156548e+01 
5.393590e+00 2.128800e+01 
5.428310e+00 2.101844e+01 
5.462800e+00 2.075516e+01 
5.497640e+00 2.049380e+01 
5.532670e+00 2.023734e+01 
5.567280e+00 1.998887e+01 
5.602000e+00 1.974382e+01 
5.637270e+00 1.949806e+01 
5.672410e+00 1.925714e+01 
5.707020e+00 1.902383e+01 
5.742040e+00 1.879326e+01 
5.777430e+00 1.856448e+01 
5.812210e+00 1.834336e+01 
5.846820e+00 1.812681e+01 
5.881610e+00 1.791264e+01 
5.916510e+00 1.770127e+01 
5.951600e+00 1.749287e+01 
5.986560e+00 1.728888e+01 
6.021830e+00 1.708639e+01 
6.056490e+00 1.689088e+01 
6.091160e+00 1.669865e+01 
6.125830e+00 1.650942e+01 
6.161090e+00 1.631994e+01 
6.195760e+00 1.613647e+01 
6.230420e+00 1.595587e+01 
6.265690e+00 1.577495e+01 
6.300950e+00 1.559774e+01 
6.335620e+00 1.542614e+01 
6.370880e+00 1.525425e+01 
6.405550e+00 1.508814e+01 
6.440220e+00 1.492464e+01 
6.475480e+00 1.476082e+01 
6.510150e+00 1.460237e+01 
6.544810e+00 1.444681e+01 
6.580080e+00 1.429083e+01 
6.614750e+00 1.413974e+01 
6.649410e+00 1.399086e+01 
6.684080e+00 1.384407e+01 
6.719340e+00 1.369694e+01 
6.754010e+00 1.355447e+01 
6.788680e+00 1.341433e+01 
6.823940e+00 1.327382e+01 
6.859800e+00 1.313297e+01 
6.894470e+00 1.299921e+01 
6.929140e+00 1.286746e+01 
6.963800e+00 1.273757e+01 
6.999070e+00 1.260721e+01 
7.033730e+00 1.248069e+01 
7.068400e+00 1.235585e+01 
7.103660e+00 1.223063e+01 
7.138330e+00 1.210955e+01 
7.173600e+00 1.198885e+01 
7.208260e+00 1.187182e+01 
7.243530e+00 1.175432e+01 
7.277600e+00 1.164195e+01 
7.312860e+00 1.152686e+01 
7.348120e+00 1.141330e+01 
7.382790e+00 1.130311e+01 
7.417460e+00 1.119505e+01 
7.452720e+00 1.108693e+01 
7.487390e+00 1.098200e+01 
7.522650e+00 1.087666e+01 
7.557320e+00 1.077443e+01 
7.591990e+00 1.067350e+01 
7.627250e+00 1.057217e+01 
7.662510e+00 1.047213e+01 
7.697180e+00 1.037517e+01 
7.731850e+00 1.027949e+01 
7.766510e+00 1.018502e+01 
7.801180e+00 1.009169e+01 
7.836440e+00 9.998053e+00 
7.871110e+00 9.907178e+00 
7.906380e+00 9.815871e+00 
7.941040e+00 9.727246e+00 
7.976310e+00 9.638325e+00 
8.011570e+00 9.550713e+00 
8.046240e+00 9.465611e+00 
8.080900e+00 9.381554e+00 
8.115570e+00 9.298501e+00 
8.150830e+00 9.215145e+00 
8.185500e+00 9.134162e+00 
8.220770e+00 9.052759e+00 
8.255430e+00 8.973711e+00 
8.290100e+00 8.895788e+00 
8.324770e+00 8.818799e+00 
8.359430e+00 8.742726e+00 
8.394700e+00 8.666217e+00 
8.429960e+00 8.590701e+00 
8.464630e+00 8.517384e+00 
8.499890e+00 8.443678e+00 
8.534560e+00 8.372039e+00 
8.569200e+00 8.301274e+00 
