# Parameters:
# omega_b = 0.022500, omega_m = 0.137500, n_s = 0.950000, h = 69.033203, w = -1.000000,sigma_8 = 0.755000
# z = 0.440000
#
# k[1/Mpc] # P(k):
8.694000e-04 9.882829e+03 
2.077466e-03 2.081650e+04 
3.285532e-03 2.921368e+04 
4.493598e-03 3.556934e+04 
5.701664e-03 4.021124e+04 
6.909730e-03 4.343437e+04 
8.117797e-03 4.555791e+04 
9.325863e-03 4.674719e+04 
1.053393e-02 4.716600e+04 
1.174199e-02 4.696376e+04 
1.295006e-02 4.623581e+04 
1.415813e-02 4.510963e+04 
1.536619e-02 4.369150e+04 
1.657426e-02 4.205475e+04 
1.778233e-02 4.026520e+04 
1.899039e-02 3.841992e+04 
2.019846e-02 3.657018e+04 
2.140652e-02 3.475964e+04 
2.261459e-02 3.301269e+04 
2.382266e-02 3.135851e+04 
2.503072e-02 2.981676e+04 
2.623879e-02 2.839433e+04 
2.744685e-02 2.709317e+04 
2.865492e-02 2.591397e+04 
2.986299e-02 2.485146e+04 
3.100100e-02 2.395365e+04 
3.220400e-02 2.310479e+04 
3.288100e-02 2.267047e+04 
3.424300e-02 2.188032e+04 
3.555100e-02 2.121081e+04 
3.686000e-02 2.061663e+04 
3.795000e-02 2.016828e+04 
3.929100e-02 1.966607e+04 
4.039800e-02 1.927946e+04 
4.164000e-02 1.886704e+04 
4.294400e-02 1.844354e+04 
4.415000e-02 1.805762e+04 
4.542900e-02 1.763847e+04 
4.660900e-02 1.724737e+04 
4.782300e-02 1.682172e+04 
4.892900e-02 1.642452e+04 
5.031200e-02 1.590869e+04 
5.155900e-02 1.542484e+04 
5.238100e-02 1.509925e+04 
5.378200e-02 1.453685e+04 
5.513400e-02 1.398749e+04 
5.627600e-02 1.352354e+04 
5.735300e-02 1.309159e+04 
5.870100e-02 1.256364e+04 
5.988700e-02 1.211615e+04 
6.113500e-02 1.166549e+04 
6.225900e-02 1.128051e+04 
6.340100e-02 1.091211e+04 
6.480200e-02 1.049160e+04 
6.601100e-02 1.015989e+04 
6.725500e-02 9.848025e+03 
6.829100e-02 9.612806e+03 
6.958600e-02 9.343963e+03 
7.071100e-02 9.134799e+03 
7.192300e-02 8.931436e+03 
7.307400e-02 8.757368e+03 
7.412300e-02 8.613011e+03 
7.550400e-02 8.442485e+03 
7.663100e-02 8.315034e+03 
7.791200e-02 8.182828e+03 
7.912700e-02 8.065414e+03 
8.027600e-02 7.958467e+03 
8.138400e-02 7.857623e+03 
8.272200e-02 7.736874e+03 
8.406100e-02 7.615039e+03 
8.534100e-02 7.493980e+03 
8.653800e-02 7.375814e+03 
8.759800e-02 7.268302e+03 
8.900300e-02 7.120539e+03 
9.009000e-02 7.001390e+03 
9.113300e-02 6.882782e+03 
9.239600e-02 6.737213e+03 
9.358000e-02 6.597748e+03 
9.496100e-02 6.431611e+03 
9.608400e-02 6.296894e+03 
9.727500e-02 6.155404e+03 
9.852600e-02 6.006960e+03 
9.973800e-02 5.867189e+03 
1.009000e-01 5.736880e+03 
1.020900e-01 5.608670e+03 
1.034000e-01 5.473651e+03 
1.046000e-01 5.355666e+03 
1.057200e-01 5.253192e+03 
1.069100e-01 5.149246e+03 
1.082500e-01 5.041511e+03 
1.093900e-01 4.956572e+03 
1.105400e-01 4.875482e+03 
1.116900e-01 4.802219e+03 
1.129600e-01 4.725397e+03 
1.142000e-01 4.657289e+03 
1.153300e-01 4.598397e+03 
1.166400e-01 4.534362e+03 
1.177800e-01 4.481654e+03 
1.190000e-01 4.427364e+03 
1.201200e-01 4.378942e+03 
1.213400e-01 4.327483e+03 
1.227100e-01 4.269693e+03 
1.238900e-01 4.220593e+03 
1.250700e-01 4.170645e+03 
1.263200e-01 4.117963e+03 
1.275500e-01 4.065101e+03 
1.287500e-01 4.013398e+03 
1.299900e-01 3.959111e+03 
1.311300e-01 3.909091e+03 
1.323500e-01 3.854896e+03 
1.335900e-01 3.800051e+03 
1.347100e-01 3.750245e+03 
1.359800e-01 3.694387e+03 
1.372100e-01 3.640265e+03 
1.384300e-01 3.587493e+03 
1.395700e-01 3.538528e+03 
1.407700e-01 3.488052e+03 
1.420300e-01 3.435883e+03 
1.432800e-01 3.385294e+03 
1.444500e-01 3.339390e+03 
1.456300e-01 3.294053e+03 
1.468900e-01 3.247422e+03 
1.480500e-01 3.205610e+03 
1.491700e-01 3.166592e+03 
1.503800e-01 3.125989e+03 
1.516400e-01 3.084867e+03 
1.528200e-01 3.048390e+03 
1.540200e-01 3.012013e+03 
1.551900e-01 2.978397e+03 
1.564300e-01 2.943737e+03 
1.576600e-01 2.910551e+03 
1.588700e-01 2.879157e+03 
1.600900e-01 2.848137e+03 
1.612700e-01 2.819409e+03 
1.625400e-01 2.789064e+03 
1.637600e-01 2.760599e+03 
1.649500e-01 2.733415e+03 
1.662200e-01 2.704900e+03 
1.674000e-01 2.678704e+03 
1.685000e-01 2.654691e+03 
1.697500e-01 2.627563e+03 
1.710300e-01 2.599987e+03 
1.722200e-01 2.574803e+03 
1.734400e-01 2.548689e+03 
1.746400e-01 2.523413e+03 
1.758700e-01 2.497711e+03 
1.770900e-01 2.472174e+03 
1.782700e-01 2.447889e+03 
1.794600e-01 2.423480e+03 
1.807000e-01 2.398257e+03 
1.819100e-01 2.374059e+03 
1.830100e-01 2.352192e+03 
1.842200e-01 2.328479e+03 
1.855000e-01 2.303815e+03 
1.867000e-01 2.281064e+03 
1.879200e-01 2.258307e+03 
1.890900e-01 2.236861e+03 
1.902800e-01 2.215556e+03 
1.915200e-01 2.193709e+03 
1.926900e-01 2.173490e+03 
1.939000e-01 2.153135e+03 
1.951700e-01 2.132111e+03 
1.963100e-01 2.113624e+03 
1.975100e-01 2.094710e+03 
1.987800e-01 2.075002e+03 
2.000100e-01 2.056304e+03 
2.012500e-01 2.037956e+03 
2.023400e-01 2.022058e+03 
2.036100e-01 2.003848e+03 
2.048900e-01 1.985962e+03 
2.060400e-01 1.970127e+03 
2.072200e-01 1.954114e+03 
2.084200e-01 1.938172e+03 
2.096900e-01 1.921545e+03 
2.109200e-01 1.905678e+03 
2.121100e-01 1.890572e+03 
2.132700e-01 1.876049e+03 
2.145200e-01 1.860617e+03 
2.157200e-01 1.845996e+03 
2.168800e-01 1.832046e+03 
2.180700e-01 1.817927e+03 
2.193400e-01 1.803053e+03 
2.206000e-01 1.788482e+03 
2.217500e-01 1.775361e+03 
2.229500e-01 1.761849e+03 
2.241400e-01 1.748600e+03 
2.253500e-01 1.735306e+03 
2.264900e-01 1.722941e+03 
2.277100e-01 1.709866e+03 
2.289900e-01 1.696321e+03 
2.301500e-01 1.684206e+03 
2.313600e-01 1.671730e+03 
2.325600e-01 1.659533e+03 
2.337700e-01 1.647391e+03 
2.350000e-01 1.635207e+03 
2.362000e-01 1.623493e+03 
2.374100e-01 1.611855e+03 
2.386500e-01 1.600081e+03 
2.399100e-01 1.588270e+03 
2.410400e-01 1.577857e+03 
2.422500e-01 1.566846e+03 
2.435000e-01 1.555613e+03 
2.447300e-01 1.544710e+03 
2.458700e-01 1.534772e+03 
2.470600e-01 1.524519e+03 
2.483300e-01 1.513710e+03 
2.495600e-01 1.503403e+03 
2.507600e-01 1.493510e+03 
2.519600e-01 1.483733e+03 
2.532200e-01 1.473590e+03 
2.543700e-01 1.464470e+03 
2.555500e-01 1.455237e+03 
2.568000e-01 1.445571e+03 
2.580100e-01 1.436324e+03 
2.592400e-01 1.427063e+03 
2.604100e-01 1.418369e+03 
2.616100e-01 1.409550e+03 
2.628400e-01 1.400614e+03 
2.640600e-01 1.391875e+03 
2.652200e-01 1.383668e+03 
2.664300e-01 1.375200e+03 
2.676500e-01 1.366758e+03 
2.688400e-01 1.358629e+03 
2.700700e-01 1.350328e+03 
2.712400e-01 1.342518e+03 
2.724800e-01 1.334330e+03 
2.736700e-01 1.326556e+03 
2.748800e-01 1.318733e+03 
2.761000e-01 1.310930e+03 
2.773200e-01 1.303212e+03 
2.785400e-01 1.295578e+03 
2.797000e-01 1.288398e+03 
2.808900e-01 1.281109e+03 
2.821400e-01 1.273533e+03 
2.833900e-01 1.266039e+03 
2.845500e-01 1.259152e+03 
2.857800e-01 1.251924e+03 
2.870300e-01 1.244657e+03 
2.882100e-01 1.237867e+03 
2.893900e-01 1.231140e+03 
2.906300e-01 1.224140e+03 
2.918900e-01 1.217102e+03 
2.930500e-01 1.210687e+03 
2.942500e-01 1.204118e+03 
2.954200e-01 1.197775e+03 
2.966500e-01 1.191173e+03 
2.978900e-01 1.184585e+03 
2.990400e-01 1.178535e+03 
3.002700e-01 1.172128e+03 
3.015100e-01 1.165734e+03 
3.026800e-01 1.159761e+03 
3.038500e-01 1.153843e+03 
3.050300e-01 1.147932e+03 
3.062600e-01 1.141835e+03 
3.075000e-01 1.135749e+03 
3.087000e-01 1.129917e+03 
3.099100e-01 1.124092e+03 
3.111200e-01 1.118327e+03 
3.123100e-01 1.112720e+03 
3.135300e-01 1.107024e+03 
3.147300e-01 1.101476e+03 
3.159900e-01 1.095705e+03 
3.171800e-01 1.090315e+03 
3.183700e-01 1.084981e+03 
3.196300e-01 1.079386e+03 
3.208400e-01 1.074064e+03 
3.220300e-01 1.068878e+03 
3.232000e-01 1.063840e+03 
3.244300e-01 1.058598e+03 
3.256700e-01 1.053362e+03 
3.269200e-01 1.048133e+03 
3.280800e-01 1.043325e+03 
3.292500e-01 1.038533e+03 
3.304800e-01 1.033545e+03 
3.317100e-01 1.028602e+03 
3.328900e-01 1.023902e+03 
3.340700e-01 1.019242e+03 
3.353600e-01 1.014213e+03 
3.365300e-01 1.009699e+03 
3.377100e-01 1.005186e+03 
3.389200e-01 1.000598e+03 
3.401600e-01 9.959370e+02 
3.413700e-01 9.914419e+02 
3.425300e-01 9.871778e+02 
3.437700e-01 9.826586e+02 
3.449800e-01 9.782872e+02 
3.461800e-01 9.739888e+02 
3.473600e-01 9.698036e+02 
3.485800e-01 9.655279e+02 
3.498100e-01 9.612542e+02 
3.510200e-01 9.570857e+02 
3.522000e-01 9.530543e+02 
3.533900e-01 9.490222e+02 
3.546400e-01 9.448462e+02 
3.558400e-01 9.408724e+02 
3.570600e-01 9.368659e+02 
3.582700e-01 9.329252e+02 
3.595000e-01 9.289527e+02 
3.607100e-01 9.250871e+02 
3.618900e-01 9.213555e+02 
3.631200e-01 9.174974e+02 
3.643200e-01 9.137642e+02 
3.655500e-01 9.099688e+02 
3.667300e-01 9.063569e+02 
3.679500e-01 9.026828e+02 
3.691900e-01 8.989789e+02 
3.703600e-01 8.955120e+02 
3.715700e-01 8.919546e+02 
3.727700e-01 8.884546e+02 
3.739900e-01 8.849254e+02 
3.752000e-01 8.814548e+02 
3.763900e-01 8.780681e+02 
3.775800e-01 8.747076e+02 
3.788200e-01 8.712334e+02 
3.800300e-01 8.678700e+02 
3.812100e-01 8.646045e+02 
3.824200e-01 8.612745e+02 
3.836100e-01 8.580246e+02 
3.848600e-01 8.546373e+02 
3.860400e-01 8.514643e+02 
3.872400e-01 8.482618e+02 
3.884600e-01 8.450653e+02 
3.896500e-01 8.419839e+02 
3.908700e-01 8.388487e+02 
3.920600e-01 8.358136e+02 
3.933100e-01 8.326497e+02 
3.945300e-01 8.295853e+02 
3.957200e-01 8.266070e+02 
3.969300e-01 8.235977e+02 
3.981700e-01 8.205371e+02 
3.993500e-01 8.176462e+02 
4.094840e-01 7.935677e+02 
4.272360e-01 7.549612e+02 
4.454600e-01 7.189750e+02 
4.630560e-01 6.872647e+02 
4.804610e-01 6.584478e+02 
4.980690e-01 6.316770e+02 
5.159230e-01 6.066414e+02 
5.317440e-01 5.861498e+02 
5.489640e-01 5.653097e+02 
5.671990e-01 5.448222e+02 
5.838690e-01 5.274493e+02 
6.018840e-01 5.100038e+02 
6.202330e-01 4.935132e+02 
6.379250e-01 4.785965e+02 
6.545410e-01 4.654946e+02 
6.714560e-01 4.529497e+02 
6.892080e-01 4.405326e+02 
7.066010e-01 4.289966e+02 
7.240540e-01 4.180870e+02 
7.420450e-01 4.075195e+02 
7.593780e-01 3.977380e+02 
7.764720e-01 3.885910e+02 
7.942840e-01 3.795345e+02 
8.116170e-01 3.710211e+02 
8.288310e-01 3.629787e+02 
8.462240e-01 3.551194e+02 
8.631980e-01 3.477591e+02 
8.810700e-01 3.403185e+02 
8.989410e-01 3.331766e+02 
9.166330e-01 3.263301e+02 
9.345640e-01 3.195805e+02 
9.515980e-01 3.133871e+02 
9.688720e-01 3.073319e+02 
9.865640e-01 3.013054e+02 
1.031870e+00 2.866472e+02 
1.063490e+00 2.770576e+02 
1.097920e+00 2.671008e+02 
1.134370e+00 2.571770e+02 
1.167730e+00 2.484785e+02 
1.203830e+00 2.395636e+02 
1.240470e+00 2.309611e+02 
1.275790e+00 2.230354e+02 
1.309140e+00 2.159238e+02 
1.342970e+00 2.089805e+02 
1.378420e+00 2.020751e+02 
1.413200e+00 1.955691e+02 
1.448110e+00 1.893343e+02 
1.484090e+00 1.831956e+02 
1.518820e+00 1.775303e+02 
1.552880e+00 1.721683e+02 
1.588630e+00 1.668078e+02 
1.623230e+00 1.618342e+02 
1.657720e+00 1.570749e+02 
1.692450e+00 1.525058e+02 
1.726400e+00 1.481760e+02 
1.762200e+00 1.437876e+02 
1.797880e+00 1.395964e+02 
1.833270e+00 1.356144e+02 
1.869070e+00 1.317318e+02 
1.903200e+00 1.281871e+02 
1.937740e+00 1.247297e+02 
1.973190e+00 1.213111e+02 
2.007440e+00 1.181281e+02 
2.042160e+00 1.150162e+02 
2.077900e+00 1.119296e+02 
2.112390e+00 1.090759e+02 
2.146220e+00 1.063487e+02 
2.181600e+00 1.036126e+02 
2.216930e+00 1.009778e+02 
2.250760e+00 9.853868e+01 
2.286500e+00 9.604789e+01 
2.321770e+00 9.367374e+01 
2.355950e+00 9.144796e+01 
2.391280e+00 8.921975e+01 
2.426240e+00 8.709701e+01 
2.460670e+00 8.507254e+01 
2.495640e+00 8.307396e+01 
2.531080e+00 8.112426e+01 
2.566220e+00 7.925079e+01 
2.600830e+00 7.746313e+01 
2.635080e+00 7.574857e+01 
2.670340e+00 7.403356e+01 
2.705970e+00 7.236182e+01 
2.740040e+00 7.081379e+01 
2.774520e+00 6.928241e+01 
2.809730e+00 6.777150e+01 
2.844390e+00 6.633101e+01 
2.879960e+00 6.489442e+01 
2.914860e+00 6.352521e+01 
2.949410e+00 6.221056e+01 
2.984440e+00 6.092047e+01 
3.019760e+00 5.965094e+01 
3.054730e+00 5.842734e+01 
3.089030e+00 5.726530e+01 
3.124060e+00 5.611155e+01 
3.159560e+00 5.497434e+01 
3.194710e+00 5.388301e+01 
3.229010e+00 5.284810e+01 
3.263320e+00 5.183240e+01 
3.297930e+00 5.083709e+01 
3.332830e+00 4.986312e+01 
3.368040e+00 4.890585e+01 
3.403300e+00 4.797229e+01 
3.438450e+00 4.706450e+01 
3.473060e+00 4.619396e+01 
3.508440e+00 4.533081e+01 
3.543110e+00 4.450689e+01 
3.577470e+00 4.370927e+01 
3.613040e+00 4.290555e+01 
3.648120e+00 4.213532e+01 
3.682910e+00 4.138854e+01 
3.718050e+00 4.064890e+01 
3.753320e+00 3.992793e+01 
3.787980e+00 3.924098e+01 
3.822290e+00 3.857524e+01 
3.857020e+00 3.791425e+01 
3.891920e+00 3.726669e+01 
3.926650e+00 3.663893e+01 
3.961970e+00 3.601534e+01 
3.997360e+00 3.540458e+01 
4.031670e+00 3.482668e+01 
4.066330e+00 3.425808e+01 
4.101420e+00 3.369558e+01 
4.136200e+00 3.314959e+01 
4.170810e+00 3.261850e+01 
4.206250e+00 3.208878e+01 
4.241580e+00 3.157296e+01 
4.276300e+00 3.107663e+01 
4.310970e+00 3.059145e+01 
4.346120e+00 3.011102e+01 
4.380600e+00 2.965115e+01 
4.414730e+00 2.920552e+01 
4.450350e+00 2.874952e+01 
4.485320e+00 2.831142e+01 
4.519810e+00 2.788968e+01 
4.555430e+00 2.746382e+01 
4.590870e+00 2.704955e+01 
4.625480e+00 2.665436e+01 
4.659910e+00 2.626914e+01 
4.695230e+00 2.588151e+01 
4.729960e+00 2.550798e+01 
4.764450e+00 2.514416e+01 
4.799530e+00 2.478109e+01 
4.834910e+00 2.442221e+01 
4.869700e+00 2.407932e+01 
4.904370e+00 2.374471e+01 
4.939450e+00 2.341253e+01 
4.973940e+00 2.309183e+01 
5.008430e+00 2.277717e+01 
5.043810e+00 2.246024e+01 
5.078840e+00 2.215224e+01 
5.113500e+00 2.185319e+01 
5.148890e+00 2.155651e+01 
5.184210e+00 2.126607e+01 
5.219060e+00 2.098424e+01 
5.253660e+00 2.070804e+01 
5.288570e+00 2.043439e+01 
5.323420e+00 2.016746e+01 
5.358440e+00 1.990552e+01 
5.393590e+00 1.964729e+01 
5.428310e+00 1.939654e+01 
5.462800e+00 1.915169e+01 
5.497640e+00 1.890865e+01 
5.532670e+00 1.867040e+01 
5.567280e+00 1.843965e+01 
5.602000e+00 1.821208e+01 
5.637270e+00 1.798355e+01 
5.672410e+00 1.775944e+01 
5.707020e+00 1.754243e+01 
5.742040e+00 1.732844e+01 
5.777430e+00 1.711621e+01 
5.812210e+00 1.691110e+01 
5.846820e+00 1.671011e+01 
5.881610e+00 1.651131e+01 
5.916510e+00 1.631511e+01 
5.951600e+00 1.612171e+01 
5.986560e+00 1.593244e+01 
6.021830e+00 1.574456e+01 
6.056490e+00 1.556332e+01 
6.091160e+00 1.538526e+01 
6.125830e+00 1.520998e+01 
6.161090e+00 1.503444e+01 
6.195760e+00 1.486438e+01 
6.230420e+00 1.469699e+01 
6.265690e+00 1.452931e+01 
6.300950e+00 1.436511e+01 
6.335620e+00 1.420612e+01 
6.370880e+00 1.404687e+01 
6.405550e+00 1.389314e+01 
6.440220e+00 1.374190e+01 
6.475480e+00 1.359039e+01 
6.510150e+00 1.344384e+01 
6.544810e+00 1.330000e+01 
6.580080e+00 1.315577e+01 
6.614750e+00 1.301606e+01 
6.649410e+00 1.287832e+01 
6.684080e+00 1.274250e+01 
6.719340e+00 1.260636e+01 
6.754010e+00 1.247460e+01 
6.788680e+00 1.234514e+01 
6.823940e+00 1.221535e+01 
6.859800e+00 1.208524e+01 
6.894470e+00 1.196170e+01 
6.929140e+00 1.184003e+01 
6.963800e+00 1.172008e+01 
6.999070e+00 1.159970e+01 
7.033730e+00 1.148293e+01 
7.068400e+00 1.136772e+01 
7.103660e+00 1.125214e+01 
7.138330e+00 1.114045e+01 
7.173600e+00 1.102918e+01 
7.208260e+00 1.092131e+01 
7.243530e+00 1.081301e+01 
7.277600e+00 1.070941e+01 
7.312860e+00 1.060326e+01 
7.348120e+00 1.049854e+01 
7.382790e+00 1.039693e+01 
7.417460e+00 1.029735e+01 
7.452720e+00 1.019777e+01 
7.487390e+00 1.010112e+01 
7.522650e+00 1.000410e+01 
7.557320e+00 9.909886e+00 
7.591990e+00 9.816852e+00 
7.627250e+00 9.723442e+00 
7.662510e+00 9.631231e+00 
7.697180e+00 9.542037e+00 
7.731850e+00 9.454083e+00 
7.766510e+00 9.367248e+00 
7.801180e+00 9.281462e+00 
7.836440e+00 9.195272e+00 
7.871110e+00 9.111556e+00 
7.906380e+00 9.027443e+00 
7.941040e+00 8.945802e+00 
7.976310e+00 8.863946e+00 
8.011570e+00 8.783364e+00 
8.046240e+00 8.705091e+00 
8.080900e+00 8.627778e+00 
8.115570e+00 8.551404e+00 
8.150830e+00 8.474810e+00 
8.185500e+00 8.400396e+00 
8.220770e+00 8.325595e+00 
8.255430e+00 8.252958e+00 
8.290100e+00 8.181335e+00 
8.324770e+00 8.110568e+00 
8.359430e+00 8.040643e+00 
8.394700e+00 7.970316e+00 
8.429960e+00 7.900936e+00 
8.464630e+00 7.833610e+00 
8.499890e+00 7.765926e+00 
8.534560e+00 7.700140e+00 
8.569200e+00 7.635155e+00 
