# Parameters:
# omega_b = 0.022500, omega_m = 0.137500, n_s = 0.950000, h = 69.033203, w = -1.000000,sigma_8 = 0.755000
# z = 0.859999
#
# k[1/Mpc] # P(k):
8.694000e-04 6.646177e+03 
2.077466e-03 1.399952e+04 
3.285532e-03 1.964678e+04 
4.493598e-03 2.392286e+04 
5.701664e-03 2.704776e+04 
6.909730e-03 2.921882e+04 
8.117797e-03 3.065064e+04 
9.325863e-03 3.145453e+04 
1.053393e-02 3.174018e+04 
1.174199e-02 3.160813e+04 
1.295006e-02 3.112267e+04 
1.415813e-02 3.036875e+04 
1.536619e-02 2.941783e+04 
1.657426e-02 2.831977e+04 
1.778233e-02 2.711842e+04 
1.899039e-02 2.587881e+04 
2.019846e-02 2.463505e+04 
2.140652e-02 2.341774e+04 
2.261459e-02 2.224227e+04 
2.382266e-02 2.112876e+04 
2.503072e-02 2.009068e+04 
2.623879e-02 1.913254e+04 
2.744685e-02 1.825596e+04 
2.865492e-02 1.746154e+04 
2.986299e-02 1.674547e+04 
3.100100e-02 1.614055e+04 
3.220400e-02 1.556838e+04 
3.288100e-02 1.527605e+04 
3.424300e-02 1.474419e+04 
3.555100e-02 1.429376e+04 
3.686000e-02 1.389454e+04 
3.795000e-02 1.359364e+04 
3.929100e-02 1.325686e+04 
4.039800e-02 1.299810e+04 
4.164000e-02 1.272202e+04 
4.294400e-02 1.243860e+04 
4.415000e-02 1.218045e+04 
4.542900e-02 1.189936e+04 
4.660900e-02 1.163684e+04 
4.782300e-02 1.135010e+04 
4.892900e-02 1.108212e+04 
5.031200e-02 1.073333e+04 
5.155900e-02 1.040514e+04 
5.238100e-02 1.018395e+04 
5.378200e-02 9.800992e+03 
5.513400e-02 9.425912e+03 
5.627600e-02 9.108774e+03 
5.735300e-02 8.813166e+03 
5.870100e-02 8.451433e+03 
5.988700e-02 8.144648e+03 
6.113500e-02 7.835558e+03 
6.225900e-02 7.571464e+03 
6.340100e-02 7.318886e+03 
6.480200e-02 7.030822e+03 
6.601100e-02 6.803812e+03 
6.725500e-02 6.590705e+03 
6.829100e-02 6.430473e+03 
6.958600e-02 6.247727e+03 
7.071100e-02 6.106066e+03 
7.192300e-02 5.968820e+03 
7.307400e-02 5.851867e+03 
7.412300e-02 5.755276e+03 
7.550400e-02 5.641694e+03 
7.663100e-02 5.557194e+03 
7.791200e-02 5.469992e+03 
7.912700e-02 5.392803e+03 
8.027600e-02 5.322684e+03 
8.138400e-02 5.256524e+03 
8.272200e-02 5.177034e+03 
8.406100e-02 5.096460e+03 
8.534100e-02 5.016044e+03 
8.653800e-02 4.936955e+03 
8.759800e-02 4.864644e+03 
8.900300e-02 4.764704e+03 
9.009000e-02 4.683615e+03 
9.113300e-02 4.602415e+03 
9.239600e-02 4.502382e+03 
9.358000e-02 4.406117e+03 
9.496100e-02 4.290916e+03 
9.608400e-02 4.197231e+03 
9.727500e-02 4.098642e+03 
9.852600e-02 3.994824e+03 
9.973800e-02 3.896944e+03 
1.009000e-01 3.805595e+03 
1.020900e-01 3.715587e+03 
1.034000e-01 3.620872e+03 
1.046000e-01 3.538178e+03 
1.057200e-01 3.466485e+03 
1.069100e-01 3.393880e+03 
1.082500e-01 3.318954e+03 
1.093900e-01 3.260149e+03 
1.105400e-01 3.204173e+03 
1.116900e-01 3.154078e+03 
1.129600e-01 3.101728e+03 
1.142000e-01 3.055757e+03 
1.153300e-01 3.016250e+03 
1.166400e-01 2.973679e+03 
1.177800e-01 2.938879e+03 
1.190000e-01 2.903152e+03 
1.201200e-01 2.871506e+03 
1.213400e-01 2.837914e+03 
1.227100e-01 2.800250e+03 
1.238900e-01 2.768211e+03 
1.250700e-01 2.735476e+03 
1.263200e-01 2.700833e+03 
1.275500e-01 2.665819e+03 
1.287500e-01 2.631417e+03 
1.299900e-01 2.595056e+03 
1.311300e-01 2.561363e+03 
1.323500e-01 2.524577e+03 
1.335900e-01 2.487142e+03 
1.347100e-01 2.452876e+03 
1.359800e-01 2.414296e+03 
1.372100e-01 2.376611e+03 
1.384300e-01 2.339777e+03 
1.395700e-01 2.305366e+03 
1.407700e-01 2.269893e+03 
1.420300e-01 2.233055e+03 
1.432800e-01 2.197356e+03 
1.444500e-01 2.164813e+03 
1.456300e-01 2.132693e+03 
1.468900e-01 2.099785e+03 
1.480500e-01 2.070329e+03 
1.491700e-01 2.042948e+03 
1.503800e-01 2.014586e+03 
1.516400e-01 1.985936e+03 
1.528200e-01 1.960793e+03 
1.540200e-01 1.935728e+03 
1.551900e-01 1.912867e+03 
1.564300e-01 1.889375e+03 
1.576600e-01 1.867043e+03 
1.588700e-01 1.846110e+03 
1.600900e-01 1.825439e+03 
1.612700e-01 1.806511e+03 
1.625400e-01 1.786519e+03 
1.637600e-01 1.767815e+03 
1.649500e-01 1.749981e+03 
1.662200e-01 1.731261e+03 
1.674000e-01 1.713989e+03 
1.685000e-01 1.698157e+03 
1.697500e-01 1.680182e+03 
1.710300e-01 1.661822e+03 
1.722200e-01 1.645056e+03 
1.734400e-01 1.627406e+03 
1.746400e-01 1.610316e+03 
1.758700e-01 1.592867e+03 
1.770900e-01 1.575385e+03 
1.782700e-01 1.558764e+03 
1.794600e-01 1.541957e+03 
1.807000e-01 1.524526e+03 
1.819100e-01 1.507809e+03 
1.830100e-01 1.492629e+03 
1.842200e-01 1.476161e+03 
1.855000e-01 1.459040e+03 
1.867000e-01 1.443237e+03 
1.879200e-01 1.427437e+03 
1.890900e-01 1.412562e+03 
1.902800e-01 1.397836e+03 
1.915200e-01 1.382741e+03 
1.926900e-01 1.368803e+03 
1.939000e-01 1.354861e+03 
1.951700e-01 1.340465e+03 
1.963100e-01 1.327835e+03 
1.975100e-01 1.314981e+03 
1.987800e-01 1.301591e+03 
2.000100e-01 1.288922e+03 
2.012500e-01 1.276567e+03 
2.023400e-01 1.265864e+03 
2.036100e-01 1.253620e+03 
2.048900e-01 1.241647e+03 
2.060400e-01 1.231049e+03 
2.072200e-01 1.220337e+03 
2.084200e-01 1.209707e+03 
2.096900e-01 1.198623e+03 
2.109200e-01 1.188048e+03 
2.121100e-01 1.177969e+03 
2.132700e-01 1.168280e+03 
2.145200e-01 1.157985e+03 
2.157200e-01 1.148220e+03 
2.168800e-01 1.138897e+03 
2.180700e-01 1.129463e+03 
2.193400e-01 1.119506e+03 
2.206000e-01 1.109714e+03 
2.217500e-01 1.100899e+03 
2.229500e-01 1.091823e+03 
2.241400e-01 1.082871e+03 
2.253500e-01 1.073889e+03 
2.264900e-01 1.065537e+03 
2.277100e-01 1.056687e+03 
2.289900e-01 1.047498e+03 
2.301500e-01 1.039282e+03 
2.313600e-01 1.030821e+03 
2.325600e-01 1.022513e+03 
2.337700e-01 1.014244e+03 
2.350000e-01 1.005948e+03 
2.362000e-01 9.979621e+02 
2.374100e-01 9.900144e+02 
2.386500e-01 9.819750e+02 
2.399100e-01 9.739133e+02 
2.410400e-01 9.667964e+02 
2.422500e-01 9.592712e+02 
2.435000e-01 9.515962e+02 
2.447300e-01 9.441497e+02 
2.458700e-01 9.373693e+02 
2.470600e-01 9.303754e+02 
2.483300e-01 9.230043e+02 
2.495600e-01 9.159765e+02 
2.507600e-01 9.092327e+02 
2.519600e-01 9.025695e+02 
2.532200e-01 8.956584e+02 
2.543700e-01 8.894586e+02 
2.555500e-01 8.831919e+02 
2.568000e-01 8.766323e+02 
2.580100e-01 8.703585e+02 
2.592400e-01 8.640910e+02 
2.604100e-01 8.582133e+02 
2.616100e-01 8.522532e+02 
2.628400e-01 8.462148e+02 
2.640600e-01 8.403227e+02 
2.652200e-01 8.347942e+02 
2.664300e-01 8.290916e+02 
2.676500e-01 8.234070e+02 
2.688400e-01 8.179440e+02 
2.700700e-01 8.123728e+02 
2.712400e-01 8.071320e+02 
2.724800e-01 8.016389e+02 
2.736700e-01 7.964350e+02 
2.748800e-01 7.912108e+02 
2.761000e-01 7.860012e+02 
2.773200e-01 7.808488e+02 
2.785400e-01 7.757567e+02 
2.797000e-01 7.709747e+02 
2.808900e-01 7.661202e+02 
2.821400e-01 7.610759e+02 
2.833900e-01 7.560871e+02 
2.845500e-01 7.515089e+02 
2.857800e-01 7.467050e+02 
2.870300e-01 7.418755e+02 
2.882100e-01 7.373644e+02 
2.893900e-01 7.329020e+02 
2.906300e-01 7.282627e+02 
2.918900e-01 7.235989e+02 
2.930500e-01 7.193495e+02 
2.942500e-01 7.149971e+02 
2.954200e-01 7.107948e+02 
2.966500e-01 7.064215e+02 
2.978900e-01 7.020582e+02 
2.990400e-01 6.980519e+02 
3.002700e-01 6.938099e+02 
3.015100e-01 6.895774e+02 
3.026800e-01 6.856235e+02 
3.038500e-01 6.817075e+02 
3.050300e-01 6.777960e+02 
3.062600e-01 6.737606e+02 
3.075000e-01 6.697330e+02 
3.087000e-01 6.658738e+02 
3.099100e-01 6.620201e+02 
3.111200e-01 6.582063e+02 
3.123100e-01 6.544959e+02 
3.135300e-01 6.507283e+02 
3.147300e-01 6.470579e+02 
3.159900e-01 6.432414e+02 
3.171800e-01 6.396760e+02 
3.183700e-01 6.361466e+02 
3.196300e-01 6.324452e+02 
3.208400e-01 6.289247e+02 
3.220300e-01 6.254946e+02 
3.232000e-01 6.221607e+02 
3.244300e-01 6.186911e+02 
3.256700e-01 6.152263e+02 
3.269200e-01 6.117667e+02 
3.280800e-01 6.085855e+02 
3.292500e-01 6.054149e+02 
3.304800e-01 6.021149e+02 
3.317100e-01 5.988453e+02 
3.328900e-01 5.957368e+02 
3.340700e-01 5.926556e+02 
3.353600e-01 5.893295e+02 
3.365300e-01 5.863444e+02 
3.377100e-01 5.833599e+02 
3.389200e-01 5.803263e+02 
3.401600e-01 5.772453e+02 
3.413700e-01 5.742762e+02 
3.425300e-01 5.714616e+02 
3.437700e-01 5.684789e+02 
3.449800e-01 5.655940e+02 
3.461800e-01 5.627577e+02 
3.473600e-01 5.599975e+02 
3.485800e-01 5.571806e+02 
3.498100e-01 5.543652e+02 
3.510200e-01 5.516195e+02 
3.522000e-01 5.489644e+02 
3.533900e-01 5.463091e+02 
3.546400e-01 5.435597e+02 
3.558400e-01 5.409438e+02 
3.570600e-01 5.383066e+02 
3.582700e-01 5.357130e+02 
3.595000e-01 5.330986e+02 
3.607100e-01 5.305572e+02 
3.618900e-01 5.281060e+02 
3.631200e-01 5.255720e+02 
3.643200e-01 5.231201e+02 
3.655500e-01 5.206276e+02 
3.667300e-01 5.182558e+02 
3.679500e-01 5.158394e+02 
3.691900e-01 5.134035e+02 
3.703600e-01 5.111236e+02 
3.715700e-01 5.087845e+02 
3.727700e-01 5.064832e+02 
3.739900e-01 5.041682e+02 
3.752000e-01 5.019012e+02 
3.763900e-01 4.996893e+02 
3.775800e-01 4.974945e+02 
3.788200e-01 4.952257e+02 
3.800300e-01 4.930293e+02 
3.812100e-01 4.909102e+02 
3.824200e-01 4.887581e+02 
3.836100e-01 4.866579e+02 
3.848600e-01 4.844690e+02 
3.860400e-01 4.824188e+02 
3.872400e-01 4.803496e+02 
3.884600e-01 4.782716e+02 
3.896500e-01 4.762637e+02 
3.908700e-01 4.742207e+02 
3.920600e-01 4.722432e+02 
3.933100e-01 4.701818e+02 
3.945300e-01 4.681853e+02 
3.957200e-01 4.662610e+02 
3.969300e-01 4.643212e+02 
3.981700e-01 4.623485e+02 
3.993500e-01 4.604852e+02 
4.094840e-01 4.450388e+02 
4.272360e-01 4.203330e+02 
4.454600e-01 3.975347e+02 
4.630560e-01 3.776213e+02 
4.804610e-01 3.596704e+02 
4.980690e-01 3.430480e+02 
5.159230e-01 3.275902e+02 
5.317440e-01 3.149395e+02 
5.489640e-01 3.021902e+02 
5.671990e-01 2.897470e+02 
5.838690e-01 2.792180e+02 
6.018840e-01 2.686757e+02 
6.202330e-01 2.587553e+02 
6.379250e-01 2.498711e+02 
6.545410e-01 2.421208e+02 
6.714560e-01 2.347289e+02 
6.892080e-01 2.274878e+02 
7.066010e-01 2.208538e+02 
7.240540e-01 2.146021e+02 
7.420450e-01 2.085643e+02 
7.593780e-01 2.030892e+02 
7.764720e-01 1.979849e+02 
7.942840e-01 1.929574e+02 
8.116170e-01 1.883258e+02 
8.288310e-01 1.839590e+02 
8.462240e-01 1.797570e+02 
8.631980e-01 1.758447e+02 
8.810700e-01 1.719117e+02 
8.989410e-01 1.681557e+02 
9.166330e-01 1.645943e+02 
9.345640e-01 1.611341e+02 
9.515980e-01 1.579744e+02 
9.688720e-01 1.548887e+02 
9.865640e-01 1.518417e+02 
1.031870e+00 1.445215e+02 
1.063490e+00 1.397656e+02 
1.097920e+00 1.349005e+02 
1.134370e+00 1.300371e+02 
1.167730e+00 1.258395e+02 
1.203830e+00 1.215269e+02 
1.240470e+00 1.173918e+02 
1.275790e+00 1.135941e+02 
1.309140e+00 1.101896e+02 
1.342970e+00 1.068720e+02 
1.378420e+00 1.035662e+02 
1.413200e+00 1.004621e+02 
1.448110e+00 9.747568e+01 
1.484090e+00 9.454035e+01 
1.518820e+00 9.181912e+01 
1.552880e+00 8.925918e+01 
1.588630e+00 8.667697e+01 
1.623230e+00 8.428372e+01 
1.657720e+00 8.198966e+01 
1.692450e+00 7.977534e+01 
1.726400e+00 7.767961e+01 
1.762200e+00 7.555265e+01 
1.797880e+00 7.351816e+01 
1.833270e+00 7.157140e+01 
1.869070e+00 6.967885e+01 
1.903200e+00 6.793888e+01 
1.937740e+00 6.623892e+01 
1.973190e+00 6.455392e+01 
2.007440e+00 6.298386e+01 
2.042160e+00 6.144846e+01 
2.077900e+00 5.991703e+01 
2.112390e+00 5.849413e+01 
2.146220e+00 5.713649e+01 
2.181600e+00 5.576648e+01 
2.216930e+00 5.444441e+01 
2.250760e+00 5.321631e+01 
2.286500e+00 5.195958e+01 
2.321770e+00 5.076270e+01 
2.355950e+00 4.964132e+01 
2.391280e+00 4.851280e+01 
2.426240e+00 4.743037e+01 
2.460670e+00 4.639709e+01 
2.495640e+00 4.537994e+01 
2.531080e+00 4.438092e+01 
2.566220e+00 4.341761e+01 
2.600830e+00 4.249764e+01 
2.635080e+00 4.161550e+01 
2.670340e+00 4.072886e+01 
2.705970e+00 3.986117e+01 
2.740040e+00 3.905638e+01 
2.774520e+00 3.826315e+01 
2.809730e+00 3.747556e+01 
2.844390e+00 3.672236e+01 
2.879960e+00 3.597018e+01 
2.914860e+00 3.525221e+01 
2.949410e+00 3.456119e+01 
2.984440e+00 3.387835e+01 
3.019760e+00 3.320979e+01 
3.054730e+00 3.256679e+01 
3.089030e+00 3.194930e+01 
3.124060e+00 3.133635e+01 
3.159560e+00 3.073252e+01 
3.194710e+00 3.014836e+01 
3.229010e+00 2.959317e+01 
3.263320e+00 2.905215e+01 
3.297930e+00 2.852048e+01 
3.332830e+00 2.799741e+01 
3.368040e+00 2.748278e+01 
3.403300e+00 2.698044e+01 
3.438450e+00 2.649155e+01 
3.473060e+00 2.602247e+01 
3.508440e+00 2.555518e+01 
3.543110e+00 2.510871e+01 
3.577470e+00 2.467504e+01 
3.613040e+00 2.423745e+01 
3.648120e+00 2.381666e+01 
3.682910e+00 2.340936e+01 
3.718050e+00 2.300739e+01 
3.753320e+00 2.261351e+01 
3.787980e+00 2.223526e+01 
3.822290e+00 2.186977e+01 
3.857020e+00 2.150855e+01 
3.891920e+00 2.115346e+01 
3.926650e+00 2.080713e+01 
3.961970e+00 2.046327e+01 
3.997360e+00 2.012706e+01 
4.031670e+00 1.980847e+01 
4.066330e+00 1.949333e+01 
4.101420e+00 1.918152e+01 
4.136200e+00 1.887957e+01 
4.170810e+00 1.858576e+01 
4.206250e+00 1.829107e+01 
4.241580e+00 1.800376e+01 
4.276300e+00 1.772751e+01 
4.310970e+00 1.745756e+01 
4.346120e+00 1.718978e+01 
4.380600e+00 1.693272e+01 
4.414730e+00 1.668359e+01 
4.450350e+00 1.642894e+01 
4.485320e+00 1.618423e+01 
4.519810e+00 1.594789e+01 
4.555430e+00 1.570888e+01 
4.590870e+00 1.547608e+01 
4.625480e+00 1.525346e+01 
4.659910e+00 1.503644e+01 
4.695230e+00 1.481835e+01 
4.729960e+00 1.460821e+01 
4.764450e+00 1.440368e+01 
4.799530e+00 1.419983e+01 
4.834910e+00 1.399830e+01 
4.869700e+00 1.380419e+01 
4.904370e+00 1.361450e+01 
4.939450e+00 1.342631e+01 
4.973940e+00 1.324499e+01 
5.008430e+00 1.306706e+01 
5.043810e+00 1.288812e+01 
5.078840e+00 1.271437e+01 
5.113500e+00 1.254564e+01 
5.148890e+00 1.237684e+01 
5.184210e+00 1.221151e+01 
5.219060e+00 1.205144e+01 
5.253660e+00 1.189561e+01 
5.288570e+00 1.174119e+01 
5.323420e+00 1.158995e+01 
5.358440e+00 1.144085e+01 
5.393590e+00 1.129385e+01 
5.428310e+00 1.115143e+01 
5.462800e+00 1.101252e+01 
5.497640e+00 1.087462e+01 
5.532670e+00 1.073860e+01 
5.567280e+00 1.060659e+01 
5.602000e+00 1.047640e+01 
5.637270e+00 1.034668e+01 
5.672410e+00 1.021970e+01 
5.707020e+00 1.009672e+01 
5.742040e+00 9.974634e+00 
5.777430e+00 9.853376e+00 
5.812210e+00 9.736178e+00 
5.846820e+00 9.621686e+00 
5.881610e+00 9.508520e+00 
5.916510e+00 9.396828e+00 
5.951600e+00 9.286606e+00 
5.986560e+00 9.178673e+00 
6.021830e+00 9.071524e+00 
6.056490e+00 8.968082e+00 
6.091160e+00 8.866382e+00 
6.125830e+00 8.766261e+00 
6.161090e+00 8.666123e+00 
6.195760e+00 8.569404e+00 
6.230420e+00 8.474189e+00 
6.265690e+00 8.378796e+00 
6.300950e+00 8.285235e+00 
6.335620e+00 8.194633e+00 
6.370880e+00 8.103879e+00 
6.405550e+00 8.016198e+00 
6.440220e+00 7.929900e+00 
6.475480e+00 7.843437e+00 
6.510150e+00 7.759766e+00 
6.544810e+00 7.677541e+00 
6.580080e+00 7.595092e+00 
6.614750e+00 7.515224e+00 
6.649410e+00 7.436804e+00 
6.684080e+00 7.359535e+00 
6.719340e+00 7.282076e+00 
6.754010e+00 7.207076e+00 
6.788680e+00 7.133313e+00 
6.823940e+00 7.059352e+00 
6.859800e+00 6.985206e+00 
6.894470e+00 6.914732e+00 
6.929140e+00 6.845302e+00 
6.963800e+00 6.776844e+00 
6.999070e+00 6.708155e+00 
7.033730e+00 6.641815e+00 
7.068400e+00 6.576352e+00 
7.103660e+00 6.510677e+00 
7.138330e+00 6.447062e+00 
7.173600e+00 6.383398e+00 
7.208260e+00 6.321671e+00 
7.243530e+00 6.259693e+00 
7.277600e+00 6.200742e+00 
7.312860e+00 6.140648e+00 
7.348120e+00 6.081349e+00 
7.382790e+00 6.023804e+00 
7.417460e+00 5.967148e+00 
7.452720e+00 5.910349e+00 
7.487390e+00 5.855220e+00 
7.522650e+00 5.799871e+00 
7.557320e+00 5.746299e+00 
7.591990e+00 5.693460e+00 
7.627250e+00 5.640401e+00 
7.662510e+00 5.588016e+00 
7.697180e+00 5.537308e+00 
7.731850e+00 5.487288e+00 
7.766510e+00 5.437898e+00 
7.801180e+00 5.389099e+00 
7.836440e+00 5.340213e+00 
7.871110e+00 5.292816e+00 
7.906380e+00 5.245187e+00 
7.941040e+00 5.198950e+00 
7.976310e+00 5.152547e+00 
8.011570e+00 5.106812e+00 
8.046240e+00 5.062382e+00 
8.080900e+00 5.018491e+00 
8.115570e+00 4.975146e+00 
8.150830e+00 4.931741e+00 
8.185500e+00 4.889566e+00 
8.220770e+00 4.847165e+00 
8.255430e+00 4.805985e+00 
8.290100e+00 4.765410e+00 
8.324770e+00 4.725318e+00 
8.359430e+00 4.685697e+00 
8.394700e+00 4.645843e+00 
8.429960e+00 4.606548e+00 
8.464630e+00 4.568439e+00 
8.499890e+00 4.530123e+00 
8.534560e+00 4.492874e+00 
8.569200e+00 4.456073e+00 
