# Parameters:
# omega_b = 0.022500, omega_m = 0.137500, n_s = 0.950000, h = 69.033203, w = -1.000000,sigma_8 = 0.755000
# z = 0.370000
#
# k[1/Mpc] # P(k):
8.694000e-04 1.060192e+04 
2.077466e-03 2.233062e+04 
3.285532e-03 3.133939e+04 
4.493598e-03 3.815659e+04 
5.701664e-03 4.313514e+04 
6.909730e-03 4.659145e+04 
8.117797e-03 4.886807e+04 
9.325863e-03 5.014246e+04 
1.053393e-02 5.059028e+04 
1.174199e-02 5.037156e+04 
1.295006e-02 4.958933e+04 
1.415813e-02 4.837989e+04 
1.536619e-02 4.685728e+04 
1.657426e-02 4.510066e+04 
1.778233e-02 4.318033e+04 
1.899039e-02 4.120031e+04 
2.019846e-02 3.921555e+04 
2.140652e-02 3.727339e+04 
2.261459e-02 3.539954e+04 
2.382266e-02 3.362508e+04 
2.503072e-02 3.197175e+04 
2.623879e-02 3.044638e+04 
2.744685e-02 2.905100e+04 
2.865492e-02 2.778661e+04 
2.986299e-02 2.664739e+04 
3.100100e-02 2.568471e+04 
3.220400e-02 2.477440e+04 
3.288100e-02 2.430884e+04 
3.424300e-02 2.346144e+04 
3.555100e-02 2.274333e+04 
3.686000e-02 2.210587e+04 
3.795000e-02 2.162484e+04 
3.929100e-02 2.108571e+04 
4.039800e-02 2.067065e+04 
4.164000e-02 2.022790e+04 
4.294400e-02 1.977303e+04 
4.415000e-02 1.935881e+04 
4.542900e-02 1.890862e+04 
4.660900e-02 1.848946e+04 
4.782300e-02 1.803310e+04 
4.892900e-02 1.760705e+04 
5.031200e-02 1.705447e+04 
5.155900e-02 1.653655e+04 
5.238100e-02 1.618785e+04 
5.378200e-02 1.558645e+04 
5.513400e-02 1.499894e+04 
5.627600e-02 1.450265e+04 
5.735300e-02 1.404100e+04 
5.870100e-02 1.347747e+04 
5.988700e-02 1.299956e+04 
6.113500e-02 1.251832e+04 
6.225900e-02 1.210651e+04 
6.340100e-02 1.171322e+04 
6.480200e-02 1.126427e+04 
6.601100e-02 1.090970e+04 
6.725500e-02 1.057602e+04 
6.829100e-02 1.032431e+04 
6.958600e-02 1.003679e+04 
7.071100e-02 9.813032e+03 
7.192300e-02 9.595119e+03 
7.307400e-02 9.408247e+03 
7.412300e-02 9.253177e+03 
7.550400e-02 9.070037e+03 
7.663100e-02 8.932930e+03 
7.791200e-02 8.790569e+03 
7.912700e-02 8.663620e+03 
8.027600e-02 8.548422e+03 
8.138400e-02 8.439826e+03 
8.272200e-02 8.309595e+03 
8.406100e-02 8.178331e+03 
8.534100e-02 8.047956e+03 
8.653800e-02 7.921299e+03 
8.759800e-02 7.806136e+03 
8.900300e-02 7.647801e+03 
9.009000e-02 7.520041e+03 
9.113300e-02 7.393248e+03 
9.239600e-02 7.237863e+03 
9.358000e-02 7.089142e+03 
9.496100e-02 6.912021e+03 
9.608400e-02 6.768534e+03 
9.727500e-02 6.617960e+03 
9.852600e-02 6.460146e+03 
9.973800e-02 6.311552e+03 
1.009000e-01 6.173012e+03 
1.020900e-01 6.036838e+03 
1.034000e-01 5.893407e+03 
1.046000e-01 5.768038e+03 
1.057200e-01 5.658874e+03 
1.069100e-01 5.548127e+03 
1.082500e-01 5.433512e+03 
1.093900e-01 5.342958e+03 
1.105400e-01 5.256392e+03 
1.116900e-01 5.178114e+03 
1.129600e-01 5.095970e+03 
1.142000e-01 5.022904e+03 
1.153300e-01 4.959700e+03 
1.166400e-01 4.890939e+03 
1.177800e-01 4.834217e+03 
1.190000e-01 4.775733e+03 
1.201200e-01 4.723468e+03 
1.213400e-01 4.667906e+03 
1.227100e-01 4.605623e+03 
1.238900e-01 4.552716e+03 
1.250700e-01 4.498918e+03 
1.263200e-01 4.442171e+03 
1.275500e-01 4.385219e+03 
1.287500e-01 4.329640e+03 
1.299900e-01 4.271474e+03 
1.311300e-01 4.217878e+03 
1.323500e-01 4.159805e+03 
1.335900e-01 4.101110e+03 
1.347100e-01 4.047905e+03 
1.359800e-01 3.988293e+03 
1.372100e-01 3.930650e+03 
1.384300e-01 3.874464e+03 
1.395700e-01 3.822383e+03 
1.407700e-01 3.768699e+03 
1.420300e-01 3.713316e+03 
1.432800e-01 3.659604e+03 
1.444500e-01 3.610802e+03 
1.456300e-01 3.562597e+03 
1.468900e-01 3.513067e+03 
1.480500e-01 3.468667e+03 
1.491700e-01 3.427177e+03 
1.503800e-01 3.383929e+03 
1.516400e-01 3.340115e+03 
1.528200e-01 3.301207e+03 
1.540200e-01 3.262404e+03 
1.551900e-01 3.226402e+03 
1.564300e-01 3.189246e+03 
1.576600e-01 3.153673e+03 
1.588700e-01 3.120026e+03 
1.600900e-01 3.086770e+03 
1.612700e-01 3.055826e+03 
1.625400e-01 3.023139e+03 
1.637600e-01 2.992508e+03 
1.649500e-01 2.963273e+03 
1.662200e-01 2.932603e+03 
1.674000e-01 2.904407e+03 
1.685000e-01 2.878560e+03 
1.697500e-01 2.849383e+03 
1.710300e-01 2.819745e+03 
1.722200e-01 2.792678e+03 
1.734400e-01 2.764669e+03 
1.746400e-01 2.737561e+03 
1.758700e-01 2.710038e+03 
1.770900e-01 2.682775e+03 
1.782700e-01 2.656846e+03 
1.794600e-01 2.630782e+03 
1.807000e-01 2.603846e+03 
1.819100e-01 2.578004e+03 
1.830100e-01 2.554627e+03 
1.842200e-01 2.529273e+03 
1.855000e-01 2.502904e+03 
1.867000e-01 2.478649e+03 
1.879200e-01 2.454386e+03 
1.890900e-01 2.431516e+03 
1.902800e-01 2.408780e+03 
1.915200e-01 2.385463e+03 
1.926900e-01 2.363881e+03 
1.939000e-01 2.342149e+03 
1.951700e-01 2.319699e+03 
1.963100e-01 2.299948e+03 
1.975100e-01 2.279716e+03 
1.987800e-01 2.258634e+03 
2.000100e-01 2.238626e+03 
2.012500e-01 2.218980e+03 
2.023400e-01 2.201957e+03 
2.036100e-01 2.182448e+03 
2.048900e-01 2.163251e+03 
2.060400e-01 2.146254e+03 
2.072200e-01 2.129065e+03 
2.084200e-01 2.111947e+03 
2.096900e-01 2.094094e+03 
2.109200e-01 2.077055e+03 
2.121100e-01 2.060818e+03 
2.132700e-01 2.045205e+03 
2.145200e-01 2.028614e+03 
2.157200e-01 2.012899e+03 
2.168800e-01 1.997907e+03 
2.180700e-01 1.982732e+03 
2.193400e-01 1.966751e+03 
2.206000e-01 1.951101e+03 
2.217500e-01 1.937010e+03 
2.229500e-01 1.922496e+03 
2.241400e-01 1.908278e+03 
2.253500e-01 1.894010e+03 
2.264900e-01 1.880739e+03 
2.277100e-01 1.866728e+03 
2.289900e-01 1.852237e+03 
2.301500e-01 1.839276e+03 
2.313600e-01 1.825927e+03 
2.325600e-01 1.812868e+03 
2.337700e-01 1.799867e+03 
2.350000e-01 1.786820e+03 
2.362000e-01 1.774283e+03 
2.374100e-01 1.761834e+03 
2.386500e-01 1.749239e+03 
2.399100e-01 1.736605e+03 
2.410400e-01 1.725439e+03 
2.422500e-01 1.713628e+03 
2.435000e-01 1.701578e+03 
2.447300e-01 1.689888e+03 
2.458700e-01 1.679260e+03 
2.470600e-01 1.668295e+03 
2.483300e-01 1.656735e+03 
2.495600e-01 1.645708e+03 
2.507600e-01 1.635122e+03 
2.519600e-01 1.624659e+03 
2.532200e-01 1.613804e+03 
2.543700e-01 1.604044e+03 
2.555500e-01 1.594162e+03 
2.568000e-01 1.583816e+03 
2.580100e-01 1.573918e+03 
2.592400e-01 1.564008e+03 
2.604100e-01 1.554703e+03 
2.616100e-01 1.545266e+03 
2.628400e-01 1.535703e+03 
2.640600e-01 1.526334e+03 
2.652200e-01 1.517527e+03 
2.664300e-01 1.508441e+03 
2.676500e-01 1.499381e+03 
2.688400e-01 1.490647e+03 
2.700700e-01 1.481722e+03 
2.712400e-01 1.473325e+03 
2.724800e-01 1.464522e+03 
2.736700e-01 1.456171e+03 
2.748800e-01 1.447778e+03 
2.761000e-01 1.439407e+03 
2.773200e-01 1.431126e+03 
2.785400e-01 1.422925e+03 
2.797000e-01 1.415189e+03 
2.808900e-01 1.407335e+03 
2.821400e-01 1.399172e+03 
2.833900e-01 1.391098e+03 
2.845500e-01 1.383697e+03 
2.857800e-01 1.375930e+03 
2.870300e-01 1.368121e+03 
2.882100e-01 1.360825e+03 
2.893900e-01 1.353579e+03 
2.906300e-01 1.346031e+03 
2.918900e-01 1.338442e+03 
2.930500e-01 1.331526e+03 
2.942500e-01 1.324445e+03 
2.954200e-01 1.317623e+03 
2.966500e-01 1.310521e+03 
2.978900e-01 1.303435e+03 
2.990400e-01 1.296927e+03 
3.002700e-01 1.290031e+03 
3.015100e-01 1.283149e+03 
3.026800e-01 1.276718e+03 
3.038500e-01 1.270347e+03 
3.050300e-01 1.263983e+03 
3.062600e-01 1.257393e+03 
3.075000e-01 1.250814e+03 
3.087000e-01 1.244509e+03 
3.099100e-01 1.238212e+03 
3.111200e-01 1.231991e+03 
3.123100e-01 1.225958e+03 
3.135300e-01 1.219830e+03 
3.147300e-01 1.213860e+03 
3.159900e-01 1.207652e+03 
3.171800e-01 1.201846e+03 
3.183700e-01 1.196096e+03 
3.196300e-01 1.190066e+03 
3.208400e-01 1.184328e+03 
3.220300e-01 1.178738e+03 
3.232000e-01 1.173297e+03 
3.244300e-01 1.167633e+03 
3.256700e-01 1.161975e+03 
3.269200e-01 1.156325e+03 
3.280800e-01 1.151129e+03 
3.292500e-01 1.145966e+03 
3.304800e-01 1.140597e+03 
3.317100e-01 1.135277e+03 
3.328900e-01 1.130218e+03 
3.340700e-01 1.125203e+03 
3.353600e-01 1.119778e+03 
3.365300e-01 1.114905e+03 
3.377100e-01 1.110031e+03 
3.389200e-01 1.105077e+03 
3.401600e-01 1.100045e+03 
3.413700e-01 1.095192e+03 
3.425300e-01 1.090589e+03 
3.437700e-01 1.085710e+03 
3.449800e-01 1.080991e+03 
3.461800e-01 1.076350e+03 
3.473600e-01 1.071836e+03 
3.485800e-01 1.067236e+03 
3.498100e-01 1.062637e+03 
3.510200e-01 1.058152e+03 
3.522000e-01 1.053814e+03 
3.533900e-01 1.049475e+03 
3.546400e-01 1.044966e+03 
3.558400e-01 1.040674e+03 
3.570600e-01 1.036346e+03 
3.582700e-01 1.032090e+03 
3.595000e-01 1.027799e+03 
3.607100e-01 1.023624e+03 
3.618900e-01 1.019594e+03 
3.631200e-01 1.015428e+03 
3.643200e-01 1.011396e+03 
3.655500e-01 1.007297e+03 
3.667300e-01 1.003397e+03 
3.679500e-01 9.994369e+02 
3.691900e-01 9.954452e+02 
3.703600e-01 9.917088e+02 
3.715700e-01 9.878750e+02 
3.727700e-01 9.841030e+02 
3.739900e-01 9.802965e+02 
3.752000e-01 9.765477e+02 
3.763900e-01 9.728896e+02 
3.775800e-01 9.692597e+02 
3.788200e-01 9.655071e+02 
3.800300e-01 9.618741e+02 
3.812100e-01 9.583523e+02 
3.824200e-01 9.547643e+02 
3.836100e-01 9.512627e+02 
3.848600e-01 9.476131e+02 
3.860400e-01 9.441945e+02 
3.872400e-01 9.407441e+02 
3.884600e-01 9.372839e+02 
3.896500e-01 9.339424e+02 
3.908700e-01 9.305424e+02 
3.920600e-01 9.272511e+02 
3.933100e-01 9.238201e+02 
3.945300e-01 9.204971e+02 
3.957200e-01 9.172743e+02 
3.969300e-01 9.140200e+02 
3.981700e-01 9.107101e+02 
3.993500e-01 9.075838e+02 
4.094840e-01 8.815947e+02 
4.272360e-01 8.397346e+02 
4.454600e-01 8.007227e+02 
4.630560e-01 7.662630e+02 
4.804610e-01 7.349218e+02 
4.980690e-01 7.057433e+02 
5.159230e-01 6.783975e+02 
5.317440e-01 6.559853e+02 
5.489640e-01 6.331651e+02 
5.671990e-01 6.107528e+02 
5.838690e-01 5.916865e+02 
6.018840e-01 5.725067e+02 
6.202330e-01 5.543340e+02 
6.379250e-01 5.378759e+02 
6.545410e-01 5.234115e+02 
6.714560e-01 5.095249e+02 
6.892080e-01 4.957554e+02 
7.066010e-01 4.829711e+02 
7.240540e-01 4.708512e+02 
7.420450e-01 4.590388e+02 
7.593780e-01 4.481406e+02 
7.764720e-01 4.379236e+02 
7.942840e-01 4.277743e+02 
8.116170e-01 4.182432e+02 
8.288310e-01 4.091858e+02 
8.462240e-01 4.003555e+02 
8.631980e-01 3.920840e+02 
8.810700e-01 3.837045e+02 
8.989410e-01 3.756268e+02 
9.166330e-01 3.678893e+02 
9.345640e-01 3.602672e+02 
9.515980e-01 3.532729e+02 
9.688720e-01 3.464168e+02 
9.865640e-01 3.395856e+02 
1.031870e+00 3.229651e+02 
1.063490e+00 3.120593e+02 
1.097920e+00 3.007672e+02 
1.134370e+00 2.894770e+02 
1.167730e+00 2.796074e+02 
1.203830e+00 2.694633e+02 
1.240470e+00 2.596962e+02 
1.275790e+00 2.506921e+02 
1.309140e+00 2.426102e+02 
1.342970e+00 2.347364e+02 
1.378420e+00 2.268941e+02 
1.413200e+00 2.195161e+02 
1.448110e+00 2.124431e+02 
1.484090e+00 2.054804e+02 
1.518820e+00 1.990693e+02 
1.552880e+00 1.929991e+02 
1.588630e+00 1.869302e+02 
1.623230e+00 1.812998e+02 
1.657720e+00 1.759199e+02 
1.692450e+00 1.707480e+02 
1.726400e+00 1.658490e+02 
1.762200e+00 1.608982e+02 
1.797880e+00 1.561680e+02 
1.833270e+00 1.516752e+02 
1.869070e+00 1.473025e+02 
1.903200e+00 1.432987e+02 
1.937740e+00 1.393985e+02 
1.973190e+00 1.355503e+02 
2.007440e+00 1.319680e+02 
2.042160e+00 1.284661e+02 
2.077900e+00 1.249935e+02 
2.112390e+00 1.217768e+02 
2.146220e+00 1.187193e+02 
2.181600e+00 1.156390e+02 
2.216930e+00 1.126768e+02 
2.250760e+00 1.099380e+02 
2.286500e+00 1.071418e+02 
2.321770e+00 1.044763e+02 
2.355950e+00 1.019773e+02 
2.391280e+00 9.948261e+01 
2.426240e+00 9.710358e+01 
2.460670e+00 9.483530e+01 
2.495640e+00 9.259886e+01 
2.531080e+00 9.041264e+01 
2.566220e+00 8.831287e+01 
2.600830e+00 8.630950e+01 
2.635080e+00 8.438807e+01 
2.670340e+00 8.247166e+01 
2.705970e+00 8.060105e+01 
2.740040e+00 7.886820e+01 
2.774520e+00 7.715709e+01 
2.809730e+00 7.546942e+01 
2.844390e+00 7.386069e+01 
2.879960e+00 7.225651e+01 
2.914860e+00 7.072772e+01 
2.949410e+00 6.925942e+01 
2.984440e+00 6.781642e+01 
3.019760e+00 6.639806e+01 
3.054730e+00 6.503200e+01 
3.089030e+00 6.373563e+01 
3.124060e+00 6.244841e+01 
3.159560e+00 6.117949e+01 
3.194710e+00 5.996246e+01 
3.229010e+00 5.880853e+01 
3.263320e+00 5.767544e+01 
3.297930e+00 5.656528e+01 
3.332830e+00 5.547923e+01 
3.368040e+00 5.441321e+01 
3.403300e+00 5.337459e+01 
3.438450e+00 5.236466e+01 
3.473060e+00 5.139618e+01 
3.508440e+00 5.043387e+01 
3.543110e+00 4.951535e+01 
3.577470e+00 4.862645e+01 
3.613040e+00 4.773078e+01 
3.648120e+00 4.687248e+01 
3.682910e+00 4.604084e+01 
3.718050e+00 4.521819e+01 
3.753320e+00 4.441583e+01 
3.787980e+00 4.365063e+01 
3.822290e+00 4.290952e+01 
3.857020e+00 4.217438e+01 
3.891920e+00 4.145434e+01 
3.926650e+00 4.075659e+01 
3.961970e+00 4.006342e+01 
3.997360e+00 3.938434e+01 
4.031670e+00 3.874182e+01 
4.066330e+00 3.810980e+01 
4.101420e+00 3.748455e+01 
4.136200e+00 3.687749e+01 
4.170810e+00 3.628697e+01 
4.206250e+00 3.569711e+01 
4.241580e+00 3.512257e+01 
4.276300e+00 3.457117e+01 
4.310970e+00 3.403294e+01 
4.346120e+00 3.349918e+01 
4.380600e+00 3.298695e+01 
4.414730e+00 3.249065e+01 
4.450350e+00 3.198480e+01 
4.485320e+00 3.149878e+01 
4.519810e+00 3.102961e+01 
4.555430e+00 3.055526e+01 
4.590870e+00 3.009415e+01 
4.625480e+00 2.965495e+01 
4.659910e+00 2.922683e+01 
4.695230e+00 2.879596e+01 
4.729960e+00 2.838075e+01 
4.764450e+00 2.797662e+01 
4.799530e+00 2.757377e+01 
4.834910e+00 2.717556e+01 
4.869700e+00 2.679387e+01 
4.904370e+00 2.642121e+01 
4.939450e+00 2.605144e+01 
4.973940e+00 2.569495e+01 
5.008430e+00 2.534517e+01 
5.043810e+00 2.499325e+01 
5.078840e+00 2.465147e+01 
5.113500e+00 2.431962e+01 
5.148890e+00 2.398922e+01 
5.184210e+00 2.366572e+01 
5.219060e+00 2.335211e+01 
5.253660e+00 2.304556e+01 
5.288570e+00 2.274184e+01 
5.323420e+00 2.244534e+01 
5.358440e+00 2.215411e+01 
5.393590e+00 2.186700e+01 
5.428310e+00 2.158817e+01 
5.462800e+00 2.131588e+01 
5.497640e+00 2.104559e+01 
5.532670e+00 2.078030e+01 
5.567280e+00 2.052324e+01 
5.602000e+00 2.026974e+01 
5.637270e+00 2.001588e+01 
5.672410e+00 1.976710e+01 
5.707020e+00 1.952620e+01 
5.742040e+00 1.928791e+01 
5.777430e+00 1.905143e+01 
5.812210e+00 1.882289e+01 
5.846820e+00 1.859926e+01 
5.881610e+00 1.837814e+01 
5.916510e+00 1.815992e+01 
5.951600e+00 1.794481e+01 
5.986560e+00 1.773429e+01 
6.021830e+00 1.752531e+01 
6.056490e+00 1.732351e+01 
6.091160e+00 1.712507e+01 
6.125830e+00 1.692972e+01 
6.161090e+00 1.673419e+01 
6.195760e+00 1.654501e+01 
6.230420e+00 1.635878e+01 
6.265690e+00 1.617223e+01 
6.300950e+00 1.598956e+01 
6.335620e+00 1.581268e+01 
6.370880e+00 1.563552e+01 
6.405550e+00 1.546425e+01 
6.440220e+00 1.529566e+01 
6.475480e+00 1.512677e+01 
6.510150e+00 1.496341e+01 
6.544810e+00 1.480308e+01 
6.580080e+00 1.464231e+01 
6.614750e+00 1.448659e+01 
6.649410e+00 1.433329e+01 
6.684080e+00 1.418216e+01 
6.719340e+00 1.403068e+01 
6.754010e+00 1.388399e+01 
6.788680e+00 1.373966e+01 
6.823940e+00 1.359496e+01 
6.859800e+00 1.344991e+01 
6.894470e+00 1.331219e+01 
6.929140e+00 1.317656e+01 
6.963800e+00 1.304284e+01 
6.999070e+00 1.290864e+01 
7.033730e+00 1.277844e+01 
7.068400e+00 1.264997e+01 
7.103660e+00 1.252111e+01 
7.138330e+00 1.239650e+01 
7.173600e+00 1.227224e+01 
7.208260e+00 1.215177e+01 
7.243530e+00 1.203082e+01 
7.277600e+00 1.191521e+01 
7.312860e+00 1.179686e+01 
7.348120e+00 1.168008e+01 
7.382790e+00 1.156678e+01 
7.417460e+00 1.145563e+01 
7.452720e+00 1.134441e+01 
7.487390e+00 1.123648e+01 
7.522650e+00 1.112812e+01 
7.557320e+00 1.102304e+01 
7.591990e+00 1.091933e+01 
7.627250e+00 1.081520e+01 
7.662510e+00 1.071241e+01 
7.697180e+00 1.061270e+01 
7.731850e+00 1.051428e+01 
7.766510e+00 1.041711e+01 
7.801180e+00 1.032112e+01 
7.836440e+00 1.022490e+01 
7.871110e+00 1.013159e+01 
7.906380e+00 1.003783e+01 
7.941040e+00 9.946828e+00 
7.976310e+00 9.855504e+00 
8.011570e+00 9.765500e+00 
8.046240e+00 9.678078e+00 
8.080900e+00 9.591730e+00 
8.115570e+00 9.506416e+00 
8.150830e+00 9.420785e+00 
8.185500e+00 9.337596e+00 
8.220770e+00 9.253976e+00 
8.255430e+00 9.172778e+00 
8.290100e+00 9.092773e+00 
8.324770e+00 9.013733e+00 
8.359430e+00 8.935635e+00 
8.394700e+00 8.857091e+00 
8.429960e+00 8.779562e+00 
8.464630e+00 8.704286e+00 
8.499890e+00 8.628613e+00 
8.534560e+00 8.555064e+00 
8.569200e+00 8.482414e+00 
