# Parameters:
# omega_b = 0.022500, omega_m = 0.137500, n_s = 0.950000, h = 74.091797, w = -1.150000,sigma_8 = 0.755000
# z = 0.500000
#
# k[1/Mpc] # P(k):
8.694000e-04 8.468709e+03 
2.077466e-03 1.808066e+04 
3.285532e-03 2.545031e+04 
4.493598e-03 3.102030e+04 
5.701664e-03 3.508261e+04 
6.909730e-03 3.789973e+04 
8.117797e-03 3.975392e+04 
9.325863e-03 4.079220e+04 
1.053393e-02 4.115868e+04 
1.174199e-02 4.098456e+04 
1.295006e-02 4.035289e+04 
1.415813e-02 3.937428e+04 
1.536619e-02 3.814091e+04 
1.657426e-02 3.671643e+04 
1.778233e-02 3.515786e+04 
1.899039e-02 3.354954e+04 
2.019846e-02 3.193620e+04 
2.140652e-02 3.035653e+04 
2.261459e-02 2.883158e+04 
2.382266e-02 2.738720e+04 
2.503072e-02 2.604079e+04 
2.623879e-02 2.479850e+04 
2.744685e-02 2.366202e+04 
2.865492e-02 2.263213e+04 
2.986299e-02 2.170396e+04 
3.100100e-02 2.091980e+04 
3.220400e-02 2.017805e+04 
3.288100e-02 1.979864e+04 
3.424300e-02 1.910813e+04 
3.555100e-02 1.852296e+04 
3.686000e-02 1.800354e+04 
3.795000e-02 1.761162e+04 
3.929100e-02 1.717269e+04 
4.039800e-02 1.683497e+04 
4.164000e-02 1.647482e+04 
4.294400e-02 1.610530e+04 
4.415000e-02 1.576880e+04 
4.542900e-02 1.540335e+04 
4.660900e-02 1.506239e+04 
4.782300e-02 1.469116e+04 
4.892900e-02 1.434454e+04 
5.031200e-02 1.389411e+04 
5.155900e-02 1.347104e+04 
5.238100e-02 1.318609e+04 
5.378200e-02 1.269331e+04 
5.513400e-02 1.221122e+04 
5.627600e-02 1.180364e+04 
5.735300e-02 1.142381e+04 
5.870100e-02 1.095916e+04 
5.988700e-02 1.056507e+04 
6.113500e-02 1.016807e+04 
6.225900e-02 9.828849e+03 
6.340100e-02 9.504301e+03 
6.480200e-02 9.133992e+03 
6.601100e-02 8.842147e+03 
6.725500e-02 8.568056e+03 
6.829100e-02 8.361695e+03 
6.958600e-02 8.126223e+03 
7.071100e-02 7.943444e+03 
7.192300e-02 7.766088e+03 
7.307400e-02 7.614660e+03 
7.412300e-02 7.489367e+03 
7.550400e-02 7.341700e+03 
7.663100e-02 7.231541e+03 
7.791200e-02 7.117482e+03 
7.912700e-02 7.016181e+03 
8.027600e-02 6.923896e+03 
8.138400e-02 6.836761e+03 
8.272200e-02 6.732164e+03 
8.406100e-02 6.626333e+03 
8.534100e-02 6.520870e+03 
8.653800e-02 6.417604e+03 
8.759800e-02 6.323475e+03 
8.900300e-02 6.193856e+03 
9.009000e-02 6.089147e+03 
9.113300e-02 5.984744e+03 
9.239600e-02 5.856484e+03 
9.358000e-02 5.733467e+03 
9.496100e-02 5.586722e+03 
9.608400e-02 5.467624e+03 
9.727500e-02 5.342463e+03 
9.852600e-02 5.210988e+03 
9.973800e-02 5.087138e+03 
1.009000e-01 4.971629e+03 
1.020900e-01 4.857919e+03 
1.034000e-01 4.738200e+03 
1.046000e-01 4.633610e+03 
1.057200e-01 4.542870e+03 
1.069100e-01 4.450900e+03 
1.082500e-01 4.355783e+03 
1.093900e-01 4.280960e+03 
1.105400e-01 4.209630e+03 
1.116900e-01 4.145483e+03 
1.129600e-01 4.078330e+03 
1.142000e-01 4.019078e+03 
1.153300e-01 3.967968e+03 
1.166400e-01 3.912595e+03 
1.177800e-01 3.867135e+03 
1.190000e-01 3.820368e+03 
1.201200e-01 3.778722e+03 
1.213400e-01 3.734475e+03 
1.227100e-01 3.684688e+03 
1.238900e-01 3.642347e+03 
1.250700e-01 3.599137e+03 
1.263200e-01 3.553485e+03 
1.275500e-01 3.507505e+03 
1.287500e-01 3.462441e+03 
1.299900e-01 3.414980e+03 
1.311300e-01 3.371161e+03 
1.323500e-01 3.323555e+03 
1.335900e-01 3.275293e+03 
1.347100e-01 3.231357e+03 
1.359800e-01 3.182037e+03 
1.372100e-01 3.134160e+03 
1.384300e-01 3.087458e+03 
1.395700e-01 3.044069e+03 
1.407700e-01 2.999347e+03 
1.420300e-01 2.953115e+03 
1.432800e-01 2.908294e+03 
1.444500e-01 2.867616e+03 
1.456300e-01 2.827449e+03 
1.468900e-01 2.786214e+03 
1.480500e-01 2.749268e+03 
1.491700e-01 2.714842e+03 
1.503800e-01 2.679080e+03 
1.516400e-01 2.642892e+03 
1.528200e-01 2.610908e+03 
1.540200e-01 2.579015e+03 
1.551900e-01 2.549649e+03 
1.564300e-01 2.519401e+03 
1.576600e-01 2.490492e+03 
1.588700e-01 2.463210e+03 
1.600900e-01 2.436257e+03 
1.612700e-01 2.411359e+03 
1.625400e-01 2.385059e+03 
1.637600e-01 2.360397e+03 
1.649500e-01 2.336849e+03 
1.662200e-01 2.312141e+03 
1.674000e-01 2.289401e+03 
1.685000e-01 2.268556e+03 
1.697500e-01 2.244967e+03 
1.710300e-01 2.220947e+03 
1.722200e-01 2.199012e+03 
1.734400e-01 2.176164e+03 
1.746400e-01 2.154047e+03 
1.758700e-01 2.131531e+03 
1.770900e-01 2.109105e+03 
1.782700e-01 2.087780e+03 
1.794600e-01 2.066309e+03 
1.807000e-01 2.044099e+03 
1.819100e-01 2.022795e+03 
1.830100e-01 2.003521e+03 
1.842200e-01 1.982618e+03 
1.855000e-01 1.960882e+03 
1.867000e-01 1.940837e+03 
1.879200e-01 1.920791e+03 
1.890900e-01 1.901906e+03 
1.902800e-01 1.883172e+03 
1.915200e-01 1.863963e+03 
1.926900e-01 1.846198e+03 
1.939000e-01 1.828351e+03 
1.951700e-01 1.809918e+03 
1.963100e-01 1.793724e+03 
1.975100e-01 1.777188e+03 
1.987800e-01 1.759959e+03 
2.000100e-01 1.743626e+03 
2.012500e-01 1.727626e+03 
2.023400e-01 1.713764e+03 
2.036100e-01 1.697893e+03 
2.048900e-01 1.682328e+03 
2.060400e-01 1.668549e+03 
2.072200e-01 1.654617e+03 
2.084200e-01 1.640759e+03 
2.096900e-01 1.626306e+03 
2.109200e-01 1.612515e+03 
2.121100e-01 1.599381e+03 
2.132700e-01 1.586755e+03 
2.145200e-01 1.573338e+03 
2.157200e-01 1.560623e+03 
2.168800e-01 1.548490e+03 
2.180700e-01 1.536209e+03 
2.193400e-01 1.523266e+03 
2.206000e-01 1.510572e+03 
2.217500e-01 1.499143e+03 
2.229500e-01 1.487373e+03 
2.241400e-01 1.475814e+03 
2.253500e-01 1.464215e+03 
2.264900e-01 1.453428e+03 
2.277100e-01 1.442016e+03 
2.289900e-01 1.430186e+03 
2.301500e-01 1.419606e+03 
2.313600e-01 1.408711e+03 
2.325600e-01 1.398047e+03 
2.337700e-01 1.387432e+03 
2.350000e-01 1.376781e+03 
2.362000e-01 1.366536e+03 
2.374100e-01 1.356351e+03 
2.386500e-01 1.346047e+03 
2.399100e-01 1.335712e+03 
2.410400e-01 1.326600e+03 
2.422500e-01 1.316965e+03 
2.435000e-01 1.307136e+03 
2.447300e-01 1.297596e+03 
2.458700e-01 1.288901e+03 
2.470600e-01 1.279931e+03 
2.483300e-01 1.270475e+03 
2.495600e-01 1.261459e+03 
2.507600e-01 1.252806e+03 
2.519600e-01 1.244255e+03 
2.532200e-01 1.235385e+03 
2.543700e-01 1.227413e+03 
2.555500e-01 1.219346e+03 
2.568000e-01 1.210900e+03 
2.580100e-01 1.202820e+03 
2.592400e-01 1.194735e+03 
2.604100e-01 1.187145e+03 
2.616100e-01 1.179447e+03 
2.628400e-01 1.171647e+03 
2.640600e-01 1.164026e+03 
2.652200e-01 1.156870e+03 
2.664300e-01 1.149488e+03 
2.676500e-01 1.142129e+03 
2.688400e-01 1.135047e+03 
2.700700e-01 1.127818e+03 
2.712400e-01 1.121018e+03 
2.724800e-01 1.113889e+03 
2.736700e-01 1.107125e+03 
2.748800e-01 1.100324e+03 
2.761000e-01 1.093542e+03 
2.773200e-01 1.086833e+03 
2.785400e-01 1.080200e+03 
2.797000e-01 1.073966e+03 
2.808900e-01 1.067637e+03 
2.821400e-01 1.061060e+03 
2.833900e-01 1.054554e+03 
2.845500e-01 1.048581e+03 
2.857800e-01 1.042313e+03 
2.870300e-01 1.036012e+03 
2.882100e-01 1.030124e+03 
2.893900e-01 1.024297e+03 
2.906300e-01 1.018236e+03 
2.918900e-01 1.012142e+03 
2.930500e-01 1.006589e+03 
2.942500e-01 1.000902e+03 
2.954200e-01 9.954147e+02 
2.966500e-01 9.897032e+02 
2.978900e-01 9.840042e+02 
2.990400e-01 9.787709e+02 
3.002700e-01 9.732324e+02 
3.015100e-01 9.677072e+02 
3.026800e-01 9.625451e+02 
3.038500e-01 9.574319e+02 
3.050300e-01 9.523242e+02 
3.062600e-01 9.470595e+02 
3.075000e-01 9.418046e+02 
3.087000e-01 9.367687e+02 
3.099100e-01 9.317395e+02 
3.111200e-01 9.267634e+02 
3.123100e-01 9.219245e+02 
3.135300e-01 9.170105e+02 
3.147300e-01 9.122229e+02 
3.159900e-01 9.072440e+02 
3.171800e-01 9.025948e+02 
3.183700e-01 8.979938e+02 
3.196300e-01 8.931681e+02 
3.208400e-01 8.885777e+02 
3.220300e-01 8.841047e+02 
3.232000e-01 8.797610e+02 
3.244300e-01 8.752417e+02 
3.256700e-01 8.707283e+02 
3.269200e-01 8.662210e+02 
3.280800e-01 8.620761e+02 
3.292500e-01 8.579455e+02 
3.304800e-01 8.536461e+02 
3.317100e-01 8.493860e+02 
3.328900e-01 8.453353e+02 
3.340700e-01 8.413199e+02 
3.353600e-01 8.369863e+02 
3.365300e-01 8.330972e+02 
3.377100e-01 8.292085e+02 
3.389200e-01 8.252554e+02 
3.401600e-01 8.212402e+02 
3.413700e-01 8.173677e+02 
3.425300e-01 8.136944e+02 
3.437700e-01 8.098014e+02 
3.449800e-01 8.060357e+02 
3.461800e-01 8.023331e+02 
3.473600e-01 7.987286e+02 
3.485800e-01 7.950475e+02 
3.498100e-01 7.913681e+02 
3.510200e-01 7.877794e+02 
3.522000e-01 7.843088e+02 
3.533900e-01 7.808377e+02 
3.546400e-01 7.772422e+02 
3.558400e-01 7.738208e+02 
3.570600e-01 7.703713e+02 
3.582700e-01 7.669785e+02 
3.595000e-01 7.635584e+02 
3.607100e-01 7.602303e+02 
3.618900e-01 7.570178e+02 
3.631200e-01 7.536964e+02 
3.643200e-01 7.504825e+02 
3.655500e-01 7.472150e+02 
3.667300e-01 7.441057e+02 
3.679500e-01 7.409407e+02 
3.691900e-01 7.377501e+02 
3.703600e-01 7.347636e+02 
3.715700e-01 7.316993e+02 
3.727700e-01 7.286843e+02 
3.739900e-01 7.256456e+02 
3.752000e-01 7.226595e+02 
3.763900e-01 7.197457e+02 
3.775800e-01 7.168545e+02 
3.788200e-01 7.138654e+02 
3.800300e-01 7.109716e+02 
3.812100e-01 7.081672e+02 
3.824200e-01 7.053108e+02 
3.836100e-01 7.025231e+02 
3.848600e-01 6.996175e+02 
3.860400e-01 6.968959e+02 
3.872400e-01 6.941489e+02 
3.884600e-01 6.914013e+02 
3.896500e-01 6.887505e+02 
3.908700e-01 6.860534e+02 
3.920600e-01 6.834424e+02 
3.933100e-01 6.807206e+02 
3.945300e-01 6.780845e+02 
3.957200e-01 6.755277e+02 
3.969300e-01 6.729458e+02 
3.981700e-01 6.703199e+02 
3.993500e-01 6.678395e+02 
4.094840e-01 6.472128e+02 
4.272360e-01 6.141508e+02 
4.454600e-01 5.834279e+02 
4.630560e-01 5.564467e+02 
4.804610e-01 5.320097e+02 
4.980690e-01 5.093572e+02 
5.159230e-01 4.882351e+02 
5.317440e-01 4.709680e+02 
5.489640e-01 4.534816e+02 
5.671990e-01 4.363515e+02 
5.838690e-01 4.218552e+02 
6.018840e-01 4.073286e+02 
6.202330e-01 3.936436e+02 
6.379250e-01 3.813074e+02 
6.545410e-01 3.705130e+02 
6.714560e-01 3.601976e+02 
6.892080e-01 3.500316e+02 
7.066010e-01 3.406341e+02 
7.240540e-01 3.317622e+02 
7.420450e-01 3.231837e+02 
7.593780e-01 3.152965e+02 
7.764720e-01 3.079317e+02 
7.942840e-01 3.006529e+02 
8.116170e-01 2.938527e+02 
8.288310e-01 2.874366e+02 
8.462240e-01 2.811923e+02 
8.631980e-01 2.753557e+02 
8.810700e-01 2.694647e+02 
8.989410e-01 2.638175e+02 
9.166330e-01 2.584209e+02 
9.345640e-01 2.531192e+02 
9.515980e-01 2.482596e+02 
9.688720e-01 2.435093e+02 
9.865640e-01 2.387894e+02 
1.031870e+00 2.273407e+02 
1.063490e+00 2.198558e+02 
1.097920e+00 2.121135e+02 
1.134370e+00 2.043777e+02 
1.167730e+00 1.976183e+02 
1.203830e+00 1.906818e+02 
1.240470e+00 1.839934e+02 
1.275790e+00 1.778281e+02 
1.309140e+00 1.722935e+02 
1.342970e+00 1.668849e+02 
1.378420e+00 1.615014e+02 
1.413200e+00 1.564311e+02 
1.448110e+00 1.515608e+02 
1.484090e+00 1.467670e+02 
1.518820e+00 1.423301e+02 
1.552880e+00 1.381398e+02 
1.588630e+00 1.339343e+02 
1.623230e+00 1.300339e+02 
1.657720e+00 1.262968e+02 
1.692450e+00 1.227065e+02 
1.726400e+00 1.192998e+02 
1.762200e+00 1.158434e+02 
1.797880e+00 1.125417e+02 
1.833270e+00 1.093963e+02 
1.869070e+00 1.063324e+02 
1.903200e+00 1.035290e+02 
1.937740e+00 1.007920e+02 
1.973190e+00 9.808297e+01 
2.007440e+00 9.555975e+01 
2.042160e+00 9.309388e+01 
2.077900e+00 9.064186e+01 
2.112390e+00 8.837298e+01 
2.146220e+00 8.620263e+01 
2.181600e+00 8.402383e+01 
2.216930e+00 8.192388e+01 
2.250760e+00 7.997657e+01 
2.286500e+00 7.798632e+01 
2.321770e+00 7.609082e+01 
2.355950e+00 7.431546e+01 
2.391280e+00 7.253370e+01 
2.426240e+00 7.083279e+01 
2.460670e+00 6.920982e+01 
2.495640e+00 6.760854e+01 
2.531080e+00 6.604545e+01 
2.566220e+00 6.454036e+01 
2.600830e+00 6.310397e+01 
2.635080e+00 6.172718e+01 
2.670340e+00 6.034654e+01 
2.705970e+00 5.900014e+01 
2.740040e+00 5.775331e+01 
2.774520e+00 5.652107e+01 
2.809730e+00 5.530311e+01 
2.844390e+00 5.414088e+01 
2.879960e+00 5.298123e+01 
2.914860e+00 5.187547e+01 
2.949410e+00 5.081307e+01 
2.984440e+00 4.976856e+01 
3.019760e+00 4.874261e+01 
3.054730e+00 4.775458e+01 
3.089030e+00 4.681264e+01 
3.124060e+00 4.587783e+01 
3.159560e+00 4.495709e+01 
3.194710e+00 4.407081e+01 
3.229010e+00 4.322971e+01 
3.263320e+00 4.240653e+01 
3.297930e+00 4.159927e+01 
3.332830e+00 4.080813e+01 
3.368040e+00 4.003037e+01 
3.403300e+00 3.927172e+01 
3.438450e+00 3.853373e+01 
3.473060e+00 3.782593e+01 
3.508440e+00 3.712390e+01 
3.543110e+00 3.645356e+01 
3.577470e+00 3.580346e+01 
3.613040e+00 3.514833e+01 
3.648120e+00 3.452035e+01 
3.682910e+00 3.391175e+01 
3.718050e+00 3.330950e+01 
3.753320e+00 3.272160e+01 
3.787980e+00 3.216021e+01 
3.822290e+00 3.161681e+01 
3.857020e+00 3.107828e+01 
3.891920e+00 3.055002e+01 
3.926650e+00 3.003671e+01 
3.961970e+00 2.952703e+01 
3.997360e+00 2.902834e+01 
4.031670e+00 2.855631e+01 
4.066330e+00 2.809120e+01 
4.101420e+00 2.763108e+01 
4.136200e+00 2.718505e+01 
4.170810e+00 2.675115e+01 
4.206250e+00 2.631769e+01 
4.241580e+00 2.589547e+01 
4.276300e+00 2.548932e+01 
4.310970e+00 2.509237e+01 
4.346120e+00 2.469915e+01 
4.380600e+00 2.432252e+01 
4.414730e+00 2.395755e+01 
4.450350e+00 2.358423e+01 
4.485320e+00 2.322556e+01 
4.519810e+00 2.288004e+01 
4.555430e+00 2.253103e+01 
4.590870e+00 2.219143e+01 
4.625480e+00 2.186731e+01 
4.659910e+00 2.155137e+01 
4.695230e+00 2.123362e+01 
4.729960e+00 2.092745e+01 
4.764450e+00 2.062934e+01 
4.799530e+00 2.033198e+01 
4.834910e+00 2.003805e+01 
4.869700e+00 1.975666e+01 
4.904370e+00 1.948197e+01 
4.939450e+00 1.920934e+01 
4.973940e+00 1.894632e+01 
5.008430e+00 1.868824e+01 
5.043810e+00 1.842846e+01 
5.078840e+00 1.817610e+01 
5.113500e+00 1.793106e+01 
5.148890e+00 1.768744e+01 
5.184210e+00 1.744893e+01 
5.219060e+00 1.721765e+01 
5.253660e+00 1.699143e+01 
5.288570e+00 1.676730e+01 
5.323420e+00 1.654846e+01 
5.358440e+00 1.633346e+01 
5.393590e+00 1.612151e+01 
5.428310e+00 1.591586e+01 
5.462800e+00 1.571513e+01 
5.497640e+00 1.551587e+01 
5.532670e+00 1.532026e+01 
5.567280e+00 1.513073e+01 
5.602000e+00 1.494382e+01 
5.637270e+00 1.475652e+01 
5.672410e+00 1.457294e+01 
5.707020e+00 1.439516e+01 
5.742040e+00 1.421961e+01 
5.777430e+00 1.404544e+01 
5.812210e+00 1.387711e+01 
5.846820e+00 1.371232e+01 
5.881610e+00 1.354936e+01 
5.916510e+00 1.338853e+01 
5.951600e+00 1.322999e+01 
5.986560e+00 1.307482e+01 
6.021830e+00 1.292080e+01 
6.056490e+00 1.277220e+01 
6.091160e+00 1.262620e+01 
6.125830e+00 1.248247e+01 
6.161090e+00 1.233858e+01 
6.195760e+00 1.219932e+01 
6.230420e+00 1.206223e+01 
6.265690e+00 1.192491e+01 
6.300950e+00 1.179044e+01 
6.335620e+00 1.166022e+01 
6.370880e+00 1.152980e+01 
6.405550e+00 1.140388e+01 
6.440220e+00 1.127998e+01 
6.475480e+00 1.115586e+01 
6.510150e+00 1.103581e+01 
6.544810e+00 1.091796e+01 
6.580080e+00 1.079981e+01 
6.614750e+00 1.068535e+01 
6.649410e+00 1.057263e+01 
6.684080e+00 1.046150e+01 
6.719340e+00 1.035011e+01 
6.754010e+00 1.024231e+01 
6.788680e+00 1.013638e+01 
6.823940e+00 1.003018e+01 
6.859800e+00 9.923716e+00 
6.894470e+00 9.822609e+00 
6.929140e+00 9.723033e+00 
6.963800e+00 9.624856e+00 
6.999070e+00 9.526336e+00 
7.033730e+00 9.430920e+00 
7.068400e+00 9.336772e+00 
7.103660e+00 9.242328e+00 
7.138330e+00 9.151000e+00 
7.173600e+00 9.059918e+00 
7.208260e+00 8.971611e+00 
7.243530e+00 8.882950e+00 
7.277600e+00 8.798272e+00 
7.312860e+00 8.711639e+00 
7.348120e+00 8.626160e+00 
7.382790e+00 8.543217e+00 
7.417460e+00 8.461849e+00 
7.452720e+00 8.380432e+00 
7.487390e+00 8.301413e+00 
7.522650e+00 8.222085e+00 
7.557320e+00 8.145135e+00 
7.591990e+00 8.069180e+00 
7.627250e+00 7.992914e+00 
7.662510e+00 7.917624e+00 
7.697180e+00 7.844792e+00 
7.731850e+00 7.772969e+00 
7.766510e+00 7.702056e+00 
7.801180e+00 7.631998e+00 
7.836440e+00 7.561664e+00 
7.871110e+00 7.493382e+00 
7.906380e+00 7.424772e+00 
7.941040e+00 7.358175e+00 
7.976310e+00 7.291395e+00 
8.011570e+00 7.225645e+00 
8.046240e+00 7.161777e+00 
8.080900e+00 7.098689e+00 
8.115570e+00 7.036376e+00 
8.150830e+00 6.973921e+00 
8.185500e+00 6.913240e+00 
8.220770e+00 6.852241e+00 
8.255430e+00 6.793003e+00 
8.290100e+00 6.734610e+00 
8.324770e+00 6.676915e+00 
8.359430e+00 6.619903e+00 
8.394700e+00 6.562560e+00 
8.429960e+00 6.506001e+00 
8.464630e+00 6.451129e+00 
8.499890e+00 6.395963e+00 
8.534560e+00 6.342339e+00 
8.569200e+00 6.289367e+00 
