# Parameters:
# omega_b = 0.022500, omega_m = 0.137500, n_s = 0.950000, h = 69.033203, w = -1.000000,sigma_8 = 0.755000
# z = 0.520000
#
# k[1/Mpc] # P(k):
8.694000e-04 9.140378e+03 
2.077466e-03 1.925289e+04 
3.285532e-03 2.701981e+04 
4.493598e-03 3.289872e+04 
5.701664e-03 3.719282e+04 
6.909730e-03 4.017501e+04 
8.117797e-03 4.214006e+04 
9.325863e-03 4.324130e+04 
1.053393e-02 4.362982e+04 
1.174199e-02 4.344405e+04 
1.295006e-02 4.277207e+04 
1.415813e-02 4.173148e+04 
1.536619e-02 4.042066e+04 
1.657426e-02 3.890762e+04 
1.778233e-02 3.725328e+04 
1.899039e-02 3.554696e+04 
2.019846e-02 3.383613e+04 
2.140652e-02 3.216175e+04 
2.261459e-02 3.054580e+04 
2.382266e-02 2.901550e+04 
2.503072e-02 2.758913e+04 
2.623879e-02 2.627313e+04 
2.744685e-02 2.506916e+04 
2.865492e-02 2.397814e+04 
2.986299e-02 2.299486e+04 
3.100100e-02 2.216425e+04 
3.220400e-02 2.137863e+04 
3.288100e-02 2.097691e+04 
3.424300e-02 2.024595e+04 
3.555100e-02 1.962669e+04 
3.686000e-02 1.907721e+04 
3.795000e-02 1.866268e+04 
3.929100e-02 1.819847e+04 
4.039800e-02 1.784126e+04 
4.164000e-02 1.746017e+04 
4.294400e-02 1.706889e+04 
4.415000e-02 1.671242e+04 
4.542900e-02 1.632495e+04 
4.660900e-02 1.596333e+04 
4.782300e-02 1.556950e+04 
4.892900e-02 1.520182e+04 
5.031200e-02 1.472423e+04 
5.155900e-02 1.427591e+04 
5.238100e-02 1.397412e+04 
5.378200e-02 1.345256e+04 
5.513400e-02 1.294278e+04 
5.627600e-02 1.251217e+04 
5.735300e-02 1.211114e+04 
5.870100e-02 1.162085e+04 
5.988700e-02 1.120521e+04 
6.113500e-02 1.078663e+04 
6.225900e-02 1.042902e+04 
6.340100e-02 1.008686e+04 
6.480200e-02 9.696339e+03 
6.601100e-02 9.388371e+03 
6.725500e-02 9.098902e+03 
6.829100e-02 8.880725e+03 
6.958600e-02 8.631519e+03 
7.071100e-02 8.437784e+03 
7.192300e-02 8.249521e+03 
7.307400e-02 8.088547e+03 
7.412300e-02 7.955184e+03 
7.550400e-02 7.797770e+03 
7.663100e-02 7.680238e+03 
7.791200e-02 7.558475e+03 
7.912700e-02 7.450378e+03 
8.027600e-02 7.352009e+03 
8.138400e-02 7.259242e+03 
8.272200e-02 7.148058e+03 
8.406100e-02 7.035768e+03 
8.534100e-02 6.924117e+03 
8.653800e-02 6.814941e+03 
8.759800e-02 6.715501e+03 
8.900300e-02 6.578665e+03 
9.009000e-02 6.468185e+03 
9.113300e-02 6.358062e+03 
9.239600e-02 6.222800e+03 
9.358000e-02 6.093095e+03 
9.496100e-02 5.938422e+03 
9.608400e-02 5.812911e+03 
9.727500e-02 5.681021e+03 
9.852600e-02 5.542564e+03 
9.973800e-02 5.412149e+03 
1.009000e-01 5.290526e+03 
1.020900e-01 5.170828e+03 
1.034000e-01 5.044789e+03 
1.046000e-01 4.934666e+03 
1.057200e-01 4.839066e+03 
1.069100e-01 4.742130e+03 
1.082500e-01 4.641769e+03 
1.093900e-01 4.562710e+03 
1.105400e-01 4.487277e+03 
1.116900e-01 4.419273e+03 
1.129600e-01 4.348017e+03 
1.142000e-01 4.284968e+03 
1.153300e-01 4.230524e+03 
1.166400e-01 4.171446e+03 
1.177800e-01 4.122884e+03 
1.190000e-01 4.072895e+03 
1.201200e-01 4.028388e+03 
1.213400e-01 3.981103e+03 
1.227100e-01 3.927991e+03 
1.238900e-01 3.882854e+03 
1.250700e-01 3.836894e+03 
1.263200e-01 3.788383e+03 
1.275500e-01 3.739628e+03 
1.287500e-01 3.691901e+03 
1.299900e-01 3.641721e+03 
1.311300e-01 3.595433e+03 
1.323500e-01 3.545205e+03 
1.335900e-01 3.494310e+03 
1.347100e-01 3.448008e+03 
1.359800e-01 3.396040e+03 
1.372100e-01 3.345609e+03 
1.384300e-01 3.296411e+03 
1.395700e-01 3.250699e+03 
1.407700e-01 3.203576e+03 
1.420300e-01 3.154837e+03 
1.432800e-01 3.107580e+03 
1.444500e-01 3.064639e+03 
1.456300e-01 3.022234e+03 
1.468900e-01 2.978660e+03 
1.480500e-01 2.939605e+03 
1.491700e-01 2.903190e+03 
1.503800e-01 2.865331e+03 
1.516400e-01 2.827009e+03 
1.528200e-01 2.793095e+03 
1.540200e-01 2.759276e+03 
1.551900e-01 2.728102e+03 
1.564300e-01 2.695981e+03 
1.576600e-01 2.665270e+03 
1.588700e-01 2.636273e+03 
1.600900e-01 2.607625e+03 
1.612700e-01 2.581153e+03 
1.625400e-01 2.553190e+03 
1.637600e-01 2.526976e+03 
1.649500e-01 2.501951e+03 
1.662200e-01 2.475696e+03 
1.674000e-01 2.451559e+03 
1.685000e-01 2.429434e+03 
1.697500e-01 2.404415e+03 
1.710300e-01 2.378959e+03 
1.722200e-01 2.355712e+03 
1.734400e-01 2.331533e+03 
1.746400e-01 2.308128e+03 
1.758700e-01 2.284311e+03 
1.770900e-01 2.260606e+03 
1.782700e-01 2.238063e+03 
1.794600e-01 2.215377e+03 
1.807000e-01 2.191915e+03 
1.819100e-01 2.169408e+03 
1.830100e-01 2.149046e+03 
1.842200e-01 2.126963e+03 
1.855000e-01 2.103996e+03 
1.867000e-01 2.082809e+03 
1.879200e-01 2.061617e+03 
1.890900e-01 2.041651e+03 
1.902800e-01 2.021829e+03 
1.915200e-01 2.001504e+03 
1.926900e-01 1.982702e+03 
1.939000e-01 1.963798e+03 
1.951700e-01 1.944272e+03 
1.963100e-01 1.927111e+03 
1.975100e-01 1.909574e+03 
1.987800e-01 1.891301e+03 
2.000100e-01 1.873974e+03 
2.012500e-01 1.856989e+03 
2.023400e-01 1.842273e+03 
2.036100e-01 1.825422e+03 
2.048900e-01 1.808889e+03 
2.060400e-01 1.794253e+03 
2.072200e-01 1.779454e+03 
2.084200e-01 1.764730e+03 
2.096900e-01 1.749376e+03 
2.109200e-01 1.734723e+03 
2.121100e-01 1.720770e+03 
2.132700e-01 1.707355e+03 
2.145200e-01 1.693101e+03 
2.157200e-01 1.679596e+03 
2.168800e-01 1.666712e+03 
2.180700e-01 1.653670e+03 
2.193400e-01 1.639927e+03 
2.206000e-01 1.626450e+03 
2.217500e-01 1.614316e+03 
2.229500e-01 1.601819e+03 
2.241400e-01 1.589552e+03 
2.253500e-01 1.577243e+03 
2.264900e-01 1.565795e+03 
2.277100e-01 1.553685e+03 
2.289900e-01 1.541135e+03 
2.301500e-01 1.529911e+03 
2.313600e-01 1.518352e+03 
2.325600e-01 1.507041e+03 
2.337700e-01 1.495783e+03 
2.350000e-01 1.484485e+03 
2.362000e-01 1.473618e+03 
2.374100e-01 1.462816e+03 
2.386500e-01 1.451887e+03 
2.399100e-01 1.440924e+03 
2.410400e-01 1.431260e+03 
2.422500e-01 1.421041e+03 
2.435000e-01 1.410616e+03 
2.447300e-01 1.400497e+03 
2.458700e-01 1.391275e+03 
2.470600e-01 1.381760e+03 
2.483300e-01 1.371730e+03 
2.495600e-01 1.362166e+03 
2.507600e-01 1.352986e+03 
2.519600e-01 1.343915e+03 
2.532200e-01 1.334504e+03 
2.543700e-01 1.326046e+03 
2.555500e-01 1.317486e+03 
2.568000e-01 1.308525e+03 
2.580100e-01 1.299952e+03 
2.592400e-01 1.291371e+03 
2.604100e-01 1.283316e+03 
2.616100e-01 1.275147e+03 
2.628400e-01 1.266869e+03 
2.640600e-01 1.258778e+03 
2.652200e-01 1.251182e+03 
2.664300e-01 1.243344e+03 
2.676500e-01 1.235530e+03 
2.688400e-01 1.228010e+03 
2.700700e-01 1.220333e+03 
2.712400e-01 1.213109e+03 
2.724800e-01 1.205537e+03 
2.736700e-01 1.198352e+03 
2.748800e-01 1.191125e+03 
2.761000e-01 1.183917e+03 
2.773200e-01 1.176788e+03 
2.785400e-01 1.169738e+03 
2.797000e-01 1.163109e+03 
2.808900e-01 1.156379e+03 
2.821400e-01 1.149385e+03 
2.833900e-01 1.142466e+03 
2.845500e-01 1.136111e+03 
2.857800e-01 1.129441e+03 
2.870300e-01 1.122735e+03 
2.882100e-01 1.116470e+03 
2.893900e-01 1.110267e+03 
2.906300e-01 1.103814e+03 
2.918900e-01 1.097326e+03 
2.930500e-01 1.091414e+03 
2.942500e-01 1.085357e+03 
2.954200e-01 1.079509e+03 
2.966500e-01 1.073423e+03 
2.978900e-01 1.067349e+03 
2.990400e-01 1.061772e+03 
3.002700e-01 1.055866e+03 
3.015100e-01 1.049974e+03 
3.026800e-01 1.044469e+03 
3.038500e-01 1.039016e+03 
3.050300e-01 1.033569e+03 
3.062600e-01 1.027950e+03 
3.075000e-01 1.022341e+03 
3.087000e-01 1.016967e+03 
3.099100e-01 1.011599e+03 
3.111200e-01 1.006287e+03 
3.123100e-01 1.001119e+03 
3.135300e-01 9.958714e+02 
3.147300e-01 9.907583e+02 
3.159900e-01 9.854410e+02 
3.171800e-01 9.804739e+02 
3.183700e-01 9.755571e+02 
3.196300e-01 9.704001e+02 
3.208400e-01 9.654946e+02 
3.220300e-01 9.607143e+02 
3.232000e-01 9.560708e+02 
3.244300e-01 9.512391e+02 
3.256700e-01 9.464135e+02 
3.269200e-01 9.415945e+02 
3.280800e-01 9.371627e+02 
3.292500e-01 9.327456e+02 
3.304800e-01 9.281478e+02 
3.317100e-01 9.235917e+02 
3.328900e-01 9.192598e+02 
3.340700e-01 9.149654e+02 
3.353600e-01 9.103300e+02 
3.365300e-01 9.061699e+02 
3.377100e-01 9.020101e+02 
3.389200e-01 8.977814e+02 
3.401600e-01 8.934862e+02 
3.413700e-01 8.893435e+02 
3.425300e-01 8.854138e+02 
3.437700e-01 8.812491e+02 
3.449800e-01 8.772206e+02 
3.461800e-01 8.732595e+02 
3.473600e-01 8.694034e+02 
3.485800e-01 8.654659e+02 
3.498100e-01 8.615302e+02 
3.510200e-01 8.576915e+02 
3.522000e-01 8.539791e+02 
3.533900e-01 8.502660e+02 
3.546400e-01 8.464196e+02 
3.558400e-01 8.427594e+02 
3.570600e-01 8.390691e+02 
3.582700e-01 8.354395e+02 
3.595000e-01 8.317805e+02 
3.607100e-01 8.282208e+02 
3.618900e-01 8.247851e+02 
3.631200e-01 8.212330e+02 
3.643200e-01 8.177958e+02 
3.655500e-01 8.143014e+02 
3.667300e-01 8.109760e+02 
3.679500e-01 8.075893e+02 
3.691900e-01 8.041752e+02 
3.703600e-01 8.009795e+02 
3.715700e-01 7.977005e+02 
3.727700e-01 7.944743e+02 
3.739900e-01 7.912238e+02 
3.752000e-01 7.880316e+02 
3.763900e-01 7.849167e+02 
3.775800e-01 7.818258e+02 
3.788200e-01 7.786303e+02 
3.800300e-01 7.755368e+02 
3.812100e-01 7.725391e+02 
3.824200e-01 7.694860e+02 
3.836100e-01 7.665064e+02 
3.848600e-01 7.634008e+02 
3.860400e-01 7.604917e+02 
3.872400e-01 7.575556e+02 
3.884600e-01 7.546175e+02 
3.896500e-01 7.517825e+02 
3.908700e-01 7.488979e+02 
3.920600e-01 7.461054e+02 
3.933100e-01 7.431944e+02 
3.945300e-01 7.403751e+02 
3.957200e-01 7.376414e+02 
3.969300e-01 7.348813e+02 
3.981700e-01 7.320740e+02 
3.993500e-01 7.294224e+02 
4.094840e-01 7.073704e+02 
4.272360e-01 6.719998e+02 
4.454600e-01 6.391047e+02 
4.630560e-01 6.101769e+02 
4.804610e-01 5.839382e+02 
4.980690e-01 5.595679e+02 
5.159230e-01 5.368067e+02 
5.317440e-01 5.181643e+02 
5.489640e-01 4.992563e+02 
5.671990e-01 4.807070e+02 
5.838690e-01 4.649789e+02 
6.018840e-01 4.491932e+02 
6.202330e-01 4.342870e+02 
6.379250e-01 4.208426e+02 
6.545410e-01 4.090527e+02 
6.714560e-01 3.977709e+02 
6.892080e-01 3.866399e+02 
7.066010e-01 3.763379e+02 
7.240540e-01 3.665968e+02 
7.420450e-01 3.571612e+02 
7.593780e-01 3.484814e+02 
7.764720e-01 3.403640e+02 
7.942840e-01 3.323325e+02 
8.116170e-01 3.248255e+02 
8.288310e-01 3.177289e+02 
8.462240e-01 3.108234e+02 
8.631980e-01 3.043608e+02 
8.810700e-01 2.978323e+02 
8.989410e-01 2.915683e+02 
9.166330e-01 2.855787e+02 
9.345640e-01 2.796957e+02 
9.515980e-01 2.742994e+02 
9.688720e-01 2.690193e+02 
9.865640e-01 2.637722e+02 
1.031870e+00 2.510424e+02 
1.063490e+00 2.427102e+02 
1.097920e+00 2.340987e+02 
1.134370e+00 2.254840e+02 
1.167730e+00 2.179644e+02 
1.203830e+00 2.102427e+02 
1.240470e+00 2.028021e+02 
1.275790e+00 1.959440e+02 
1.309140e+00 1.897890e+02 
1.342970e+00 1.837771e+02 
1.378420e+00 1.777938e+02 
1.413200e+00 1.721616e+02 
1.448110e+00 1.667516e+02 
1.484090e+00 1.614297e+02 
1.518820e+00 1.565052e+02 
1.552880e+00 1.518587e+02 
1.588630e+00 1.471950e+02 
1.623230e+00 1.428719e+02 
1.657720e+00 1.387319e+02 
1.692450e+00 1.347548e+02 
1.726400e+00 1.309825e+02 
1.762200e+00 1.271578e+02 
1.797880e+00 1.235065e+02 
1.833270e+00 1.200264e+02 
1.869070e+00 1.166405e+02 
1.903200e+00 1.135419e+02 
1.937740e+00 1.105180e+02 
1.973190e+00 1.075261e+02 
2.007440e+00 1.047409e+02 
2.042160e+00 1.020205e+02 
2.077900e+00 9.931476e+01 
2.112390e+00 9.681224e+01 
2.146220e+00 9.441915e+01 
2.181600e+00 9.201726e+01 
2.216930e+00 8.970325e+01 
2.250760e+00 8.755721e+01 
2.286500e+00 8.536434e+01 
2.321770e+00 8.327782e+01 
2.355950e+00 8.132505e+01 
2.391280e+00 7.936448e+01 
2.426240e+00 7.749260e+01 
2.460670e+00 7.570709e+01 
2.495640e+00 7.394656e+01 
2.531080e+00 7.222849e+01 
2.566220e+00 7.057397e+01 
2.600830e+00 6.899552e+01 
2.635080e+00 6.748337e+01 
2.670340e+00 6.596658e+01 
2.705970e+00 6.448780e+01 
2.740040e+00 6.311882e+01 
2.774520e+00 6.176678e+01 
2.809730e+00 6.043021e+01 
2.844390e+00 5.915484e+01 
2.879960e+00 5.788266e+01 
2.914860e+00 5.666987e+01 
2.949410e+00 5.550471e+01 
2.984440e+00 5.435896e+01 
3.019760e+00 5.323463e+01 
3.054730e+00 5.215243e+01 
3.089030e+00 5.111987e+01 
3.124060e+00 5.009553e+01 
3.159560e+00 4.908715e+01 
3.194710e+00 4.811591e+01 
3.229010e+00 4.719410e+01 
3.263320e+00 4.629316e+01 
3.297930e+00 4.540958e+01 
3.332830e+00 4.454352e+01 
3.368040e+00 4.369223e+01 
3.403300e+00 4.286196e+01 
3.438450e+00 4.205454e+01 
3.473060e+00 4.128019e+01 
3.508440e+00 4.051237e+01 
3.543110e+00 3.977919e+01 
3.577470e+00 3.906798e+01 
3.613040e+00 3.835133e+01 
3.648120e+00 3.766455e+01 
3.682910e+00 3.699915e+01 
3.718050e+00 3.634104e+01 
3.753320e+00 3.569842e+01 
3.787980e+00 3.508447e+01 
3.822290e+00 3.449052e+01 
3.857020e+00 3.390236e+01 
3.891920e+00 3.332527e+01 
3.926650e+00 3.276421e+01 
3.961970e+00 3.220724e+01 
3.997360e+00 3.166260e+01 
4.031670e+00 3.114704e+01 
4.066330e+00 3.063891e+01 
4.101420e+00 3.013626e+01 
4.136200e+00 2.964932e+01 
4.170810e+00 2.917564e+01 
4.206250e+00 2.870228e+01 
4.241580e+00 2.824117e+01 
4.276300e+00 2.779774e+01 
4.310970e+00 2.736443e+01 
4.346120e+00 2.693517e+01 
4.380600e+00 2.652397e+01 
4.414730e+00 2.612551e+01 
4.450350e+00 2.571809e+01 
4.485320e+00 2.532665e+01 
4.519810e+00 2.494952e+01 
4.555430e+00 2.456859e+01 
4.590870e+00 2.419790e+01 
4.625480e+00 2.384408e+01 
4.659910e+00 2.349918e+01 
4.695230e+00 2.315244e+01 
4.729960e+00 2.281835e+01 
4.764450e+00 2.249309e+01 
4.799530e+00 2.216875e+01 
4.834910e+00 2.184814e+01 
4.869700e+00 2.154103e+01 
4.904370e+00 2.124120e+01 
4.939450e+00 2.094366e+01 
4.973940e+00 2.065668e+01 
5.008430e+00 2.037509e+01 
5.043810e+00 2.009173e+01 
5.078840e+00 1.981650e+01 
5.113500e+00 1.954926e+01 
5.148890e+00 1.928338e+01 
5.184210e+00 1.902307e+01 
5.219060e+00 1.877071e+01 
5.253660e+00 1.852404e+01 
5.288570e+00 1.827964e+01 
5.323420e+00 1.804094e+01 
5.358440e+00 1.780635e+01 
5.393590e+00 1.757508e+01 
5.428310e+00 1.735074e+01 
5.462800e+00 1.713178e+01 
5.497640e+00 1.691443e+01 
5.532670e+00 1.670097e+01 
5.567280e+00 1.649410e+01 
5.602000e+00 1.629009e+01 
5.637270e+00 1.608579e+01 
5.672410e+00 1.588559e+01 
5.707020e+00 1.569172e+01 
5.742040e+00 1.550016e+01 
5.777430e+00 1.531009e+01 
5.812210e+00 1.512639e+01 
5.846820e+00 1.494659e+01 
5.881610e+00 1.476880e+01 
5.916510e+00 1.459334e+01 
5.951600e+00 1.442036e+01 
5.986560e+00 1.425105e+01 
6.021830e+00 1.408298e+01 
6.056490e+00 1.392082e+01 
6.091160e+00 1.376147e+01 
6.125830e+00 1.360461e+01 
6.161090e+00 1.344759e+01 
6.195760e+00 1.329565e+01 
6.230420e+00 1.314609e+01 
6.265690e+00 1.299626e+01 
6.300950e+00 1.284951e+01 
6.335620e+00 1.270741e+01 
6.370880e+00 1.256508e+01 
6.405550e+00 1.242765e+01 
6.440220e+00 1.229241e+01 
6.475480e+00 1.215692e+01 
6.510150e+00 1.202588e+01 
6.544810e+00 1.189722e+01 
6.580080e+00 1.176821e+01 
6.614750e+00 1.164326e+01 
6.649410e+00 1.152022e+01 
6.684080e+00 1.139892e+01 
6.719340e+00 1.127734e+01 
6.754010e+00 1.115966e+01 
6.788680e+00 1.104401e+01 
6.823940e+00 1.092806e+01 
6.859800e+00 1.081183e+01 
6.894470e+00 1.070141e+01 
6.929140e+00 1.059267e+01 
6.963800e+00 1.048545e+01 
6.999070e+00 1.037786e+01 
7.033730e+00 1.027368e+01 
7.068400e+00 1.017090e+01 
7.103660e+00 1.006779e+01 
7.138330e+00 9.968053e+00 
7.173600e+00 9.868526e+00 
7.208260e+00 9.772035e+00 
7.243530e+00 9.675158e+00 
7.277600e+00 9.582669e+00 
7.312860e+00 9.488077e+00 
7.348120e+00 9.394746e+00 
7.382790e+00 9.304186e+00 
7.417460e+00 9.215297e+00 
7.452720e+00 9.126331e+00 
7.487390e+00 9.039987e+00 
7.522650e+00 8.953307e+00 
7.557320e+00 8.869234e+00 
7.591990e+00 8.786252e+00 
7.627250e+00 8.702932e+00 
7.662510e+00 8.620679e+00 
7.697180e+00 8.541095e+00 
7.731850e+00 8.462606e+00 
7.766510e+00 8.385114e+00 
7.801180e+00 8.308558e+00 
7.836440e+00 8.231705e+00 
7.871110e+00 8.157098e+00 
7.906380e+00 8.082134e+00 
7.941040e+00 8.009371e+00 
7.976310e+00 7.936395e+00 
8.011570e+00 7.864529e+00 
8.046240e+00 7.794720e+00 
8.080900e+00 7.725766e+00 
8.115570e+00 7.657660e+00 
8.150830e+00 7.589396e+00 
8.185500e+00 7.523073e+00 
8.220770e+00 7.456403e+00 
8.255430e+00 7.391661e+00 
8.290100e+00 7.327829e+00 
8.324770e+00 7.264759e+00 
8.359430e+00 7.202438e+00 
8.394700e+00 7.139757e+00 
8.429960e+00 7.077927e+00 
8.464630e+00 7.017937e+00 
8.499890e+00 6.957627e+00 
8.534560e+00 6.899005e+00 
8.569200e+00 6.841096e+00 
