# Parameters:
# omega_b = 0.022500, omega_m = 0.137500, n_s = 0.950000, h = 69.033203, w = -1.000000,sigma_8 = 0.755000
# z = 0.839999
#
# k[1/Mpc] # P(k):
8.694000e-04 6.792234e+03 
2.077466e-03 1.431780e+04 
3.285532e-03 2.009229e+04 
4.493598e-03 2.446314e+04 
5.701664e-03 2.765304e+04 
6.909730e-03 2.986602e+04 
8.117797e-03 3.132334e+04 
9.325863e-03 3.213949e+04 
1.053393e-02 3.242643e+04 
1.174199e-02 3.228667e+04 
1.295006e-02 3.178576e+04 
1.415813e-02 3.101094e+04 
1.536619e-02 3.003546e+04 
1.657426e-02 2.890987e+04 
1.778233e-02 2.767679e+04 
1.899039e-02 2.640187e+04 
2.019846e-02 2.512437e+04 
2.140652e-02 2.387730e+04 
2.261459e-02 2.267480e+04 
2.382266e-02 2.153630e+04 
2.503072e-02 2.047526e+04 
2.623879e-02 1.949623e+04 
2.744685e-02 1.860074e+04 
2.865492e-02 1.778939e+04 
2.986299e-02 1.705817e+04 
3.100100e-02 1.644063e+04 
3.220400e-02 1.585660e+04 
3.288100e-02 1.555829e+04 
3.424300e-02 1.501564e+04 
3.555100e-02 1.455622e+04 
3.686000e-02 1.414915e+04 
3.795000e-02 1.384245e+04 
3.929100e-02 1.349934e+04 
4.039800e-02 1.323582e+04 
4.164000e-02 1.295475e+04 
4.294400e-02 1.266633e+04 
4.415000e-02 1.240367e+04 
4.542900e-02 1.211771e+04 
4.660900e-02 1.185063e+04 
4.782300e-02 1.155892e+04 
4.892900e-02 1.128626e+04 
5.031200e-02 1.093136e+04 
5.155900e-02 1.059738e+04 
5.238100e-02 1.037226e+04 
5.378200e-02 9.982478e+03 
5.513400e-02 9.600685e+03 
5.627600e-02 9.277851e+03 
5.735300e-02 8.976920e+03 
5.870100e-02 8.608666e+03 
5.988700e-02 8.296347e+03 
6.113500e-02 7.981688e+03 
6.225900e-02 7.712837e+03 
6.340100e-02 7.455705e+03 
6.480200e-02 7.162444e+03 
6.601100e-02 6.931341e+03 
6.725500e-02 6.714385e+03 
6.829100e-02 6.551251e+03 
6.958600e-02 6.365196e+03 
7.071100e-02 6.220959e+03 
7.192300e-02 6.081196e+03 
7.307400e-02 5.962086e+03 
7.412300e-02 5.863707e+03 
7.550400e-02 5.748004e+03 
7.663100e-02 5.661915e+03 
7.791200e-02 5.573064e+03 
7.912700e-02 5.494402e+03 
8.027600e-02 5.422945e+03 
8.138400e-02 5.355527e+03 
8.272200e-02 5.274529e+03 
8.406100e-02 5.192443e+03 
8.534100e-02 5.110535e+03 
8.653800e-02 5.029999e+03 
8.759800e-02 4.956377e+03 
8.900300e-02 4.854648e+03 
9.009000e-02 4.772128e+03 
9.113300e-02 4.689516e+03 
9.239600e-02 4.587760e+03 
9.358000e-02 4.489858e+03 
9.496100e-02 4.372718e+03 
9.608400e-02 4.277466e+03 
9.727500e-02 4.177234e+03 
9.852600e-02 4.071706e+03 
9.973800e-02 3.972213e+03 
1.009000e-01 3.879359e+03 
1.020900e-01 3.787860e+03 
1.034000e-01 3.691563e+03 
1.046000e-01 3.607474e+03 
1.057200e-01 3.534544e+03 
1.069100e-01 3.460672e+03 
1.082500e-01 3.384401e+03 
1.093900e-01 3.324507e+03 
1.105400e-01 3.267474e+03 
1.116900e-01 3.216388e+03 
1.129600e-01 3.162988e+03 
1.142000e-01 3.116055e+03 
1.153300e-01 3.075709e+03 
1.166400e-01 3.032215e+03 
1.177800e-01 2.996657e+03 
1.190000e-01 2.960148e+03 
1.201200e-01 2.927828e+03 
1.213400e-01 2.893525e+03 
1.227100e-01 2.855103e+03 
1.238900e-01 2.822434e+03 
1.250700e-01 2.789095e+03 
1.263200e-01 2.753831e+03 
1.275500e-01 2.718226e+03 
1.287500e-01 2.683261e+03 
1.299900e-01 2.646330e+03 
1.311300e-01 2.612120e+03 
1.323500e-01 2.574788e+03 
1.335900e-01 2.536802e+03 
1.347100e-01 2.502037e+03 
1.359800e-01 2.462896e+03 
1.372100e-01 2.424665e+03 
1.384300e-01 2.387294e+03 
1.395700e-01 2.352373e+03 
1.407700e-01 2.316372e+03 
1.420300e-01 2.278968e+03 
1.432800e-01 2.242719e+03 
1.444500e-01 2.209651e+03 
1.456300e-01 2.177011e+03 
1.468900e-01 2.143549e+03 
1.480500e-01 2.113589e+03 
1.491700e-01 2.085727e+03 
1.503800e-01 2.056852e+03 
1.516400e-01 2.027678e+03 
1.528200e-01 2.002056e+03 
1.540200e-01 1.976512e+03 
1.551900e-01 1.953196e+03 
1.564300e-01 1.929232e+03 
1.576600e-01 1.906444e+03 
1.588700e-01 1.885076e+03 
1.600900e-01 1.863976e+03 
1.612700e-01 1.844650e+03 
1.625400e-01 1.824237e+03 
1.637600e-01 1.805145e+03 
1.649500e-01 1.786943e+03 
1.662200e-01 1.767841e+03 
1.674000e-01 1.750229e+03 
1.685000e-01 1.734087e+03 
1.697500e-01 1.715769e+03 
1.710300e-01 1.697067e+03 
1.722200e-01 1.679991e+03 
1.734400e-01 1.662033e+03 
1.746400e-01 1.644645e+03 
1.758700e-01 1.626897e+03 
1.770900e-01 1.609124e+03 
1.782700e-01 1.592225e+03 
1.794600e-01 1.575142e+03 
1.807000e-01 1.557426e+03 
1.819100e-01 1.540435e+03 
1.830100e-01 1.525006e+03 
1.842200e-01 1.508266e+03 
1.855000e-01 1.490861e+03 
1.867000e-01 1.474790e+03 
1.879200e-01 1.458722e+03 
1.890900e-01 1.443593e+03 
1.902800e-01 1.428606e+03 
1.915200e-01 1.413244e+03 
1.926900e-01 1.399055e+03 
1.939000e-01 1.384854e+03 
1.951700e-01 1.370189e+03 
1.963100e-01 1.357321e+03 
1.975100e-01 1.344219e+03 
1.987800e-01 1.330571e+03 
2.000100e-01 1.317656e+03 
2.012500e-01 1.305056e+03 
2.023400e-01 1.294140e+03 
2.036100e-01 1.281653e+03 
2.048900e-01 1.269444e+03 
2.060400e-01 1.258637e+03 
2.072200e-01 1.247713e+03 
2.084200e-01 1.236879e+03 
2.096900e-01 1.225581e+03 
2.109200e-01 1.214801e+03 
2.121100e-01 1.204538e+03 
2.132700e-01 1.194672e+03 
2.145200e-01 1.184190e+03 
2.157200e-01 1.174257e+03 
2.168800e-01 1.164779e+03 
2.180700e-01 1.155187e+03 
2.193400e-01 1.145071e+03 
2.206000e-01 1.135136e+03 
2.217500e-01 1.126192e+03 
2.229500e-01 1.116983e+03 
2.241400e-01 1.107922e+03 
2.253500e-01 1.098831e+03 
2.264900e-01 1.090377e+03 
2.277100e-01 1.081431e+03 
2.289900e-01 1.072156e+03 
2.301500e-01 1.063863e+03 
2.313600e-01 1.055323e+03 
2.325600e-01 1.046961e+03 
2.337700e-01 1.038638e+03 
2.350000e-01 1.030288e+03 
2.362000e-01 1.022259e+03 
2.374100e-01 1.014280e+03 
2.386500e-01 1.006209e+03 
2.399100e-01 9.981148e+02 
2.410400e-01 9.909844e+02 
2.422500e-01 9.834466e+02 
2.435000e-01 9.757581e+02 
2.447300e-01 9.683001e+02 
2.458700e-01 9.615170e+02 
2.470600e-01 9.545200e+02 
2.483300e-01 9.471450e+02 
2.495600e-01 9.401145e+02 
2.507600e-01 9.333696e+02 
2.519600e-01 9.267049e+02 
2.532200e-01 9.197918e+02 
2.543700e-01 9.135861e+02 
2.555500e-01 9.073108e+02 
2.568000e-01 9.007416e+02 
2.580100e-01 8.944582e+02 
2.592400e-01 8.881715e+02 
2.604100e-01 8.822713e+02 
2.616100e-01 8.762881e+02 
2.628400e-01 8.702259e+02 
2.640600e-01 8.642968e+02 
2.652200e-01 8.587280e+02 
2.664300e-01 8.529835e+02 
2.676500e-01 8.472570e+02 
2.688400e-01 8.417406e+02 
2.700700e-01 8.361067e+02 
2.712400e-01 8.308066e+02 
2.724800e-01 8.252513e+02 
2.736700e-01 8.199780e+02 
2.748800e-01 8.146736e+02 
2.761000e-01 8.093838e+02 
2.773200e-01 8.041520e+02 
2.785400e-01 7.989756e+02 
2.797000e-01 7.941025e+02 
2.808900e-01 7.891555e+02 
2.821400e-01 7.840149e+02 
2.833900e-01 7.789303e+02 
2.845500e-01 7.742511e+02 
2.857800e-01 7.693412e+02 
2.870300e-01 7.644051e+02 
2.882100e-01 7.597943e+02 
2.893900e-01 7.552266e+02 
2.906300e-01 7.504745e+02 
2.918900e-01 7.456972e+02 
2.930500e-01 7.413442e+02 
2.942500e-01 7.368840e+02 
2.954200e-01 7.325721e+02 
2.966500e-01 7.280847e+02 
2.978900e-01 7.236076e+02 
2.990400e-01 7.194967e+02 
3.002700e-01 7.151408e+02 
3.015100e-01 7.107932e+02 
3.026800e-01 7.067316e+02 
3.038500e-01 7.027091e+02 
3.050300e-01 6.986910e+02 
3.062600e-01 6.945428e+02 
3.075000e-01 6.904027e+02 
3.087000e-01 6.864355e+02 
3.099100e-01 6.824741e+02 
3.111200e-01 6.785532e+02 
3.123100e-01 6.747375e+02 
3.135300e-01 6.708632e+02 
3.147300e-01 6.670888e+02 
3.159900e-01 6.631641e+02 
3.171800e-01 6.594973e+02 
3.183700e-01 6.558674e+02 
3.196300e-01 6.520607e+02 
3.208400e-01 6.484400e+02 
3.220300e-01 6.449122e+02 
3.232000e-01 6.414839e+02 
3.244300e-01 6.379163e+02 
3.256700e-01 6.343536e+02 
3.269200e-01 6.307962e+02 
3.280800e-01 6.275251e+02 
3.292500e-01 6.242658e+02 
3.304800e-01 6.208736e+02 
3.317100e-01 6.175127e+02 
3.328900e-01 6.143174e+02 
3.340700e-01 6.111502e+02 
3.353600e-01 6.077324e+02 
3.365300e-01 6.046656e+02 
3.377100e-01 6.015994e+02 
3.389200e-01 5.984827e+02 
3.401600e-01 5.953173e+02 
3.413700e-01 5.922676e+02 
3.425300e-01 5.893772e+02 
3.437700e-01 5.863142e+02 
3.449800e-01 5.833517e+02 
3.461800e-01 5.804389e+02 
3.473600e-01 5.776049e+02 
3.485800e-01 5.747141e+02 
3.498100e-01 5.718249e+02 
3.510200e-01 5.690071e+02 
3.522000e-01 5.662823e+02 
3.533900e-01 5.635572e+02 
3.546400e-01 5.607372e+02 
3.558400e-01 5.580540e+02 
3.570600e-01 5.553490e+02 
3.582700e-01 5.526886e+02 
3.595000e-01 5.500070e+02 
3.607100e-01 5.474010e+02 
3.618900e-01 5.448880e+02 
3.631200e-01 5.422900e+02 
3.643200e-01 5.397763e+02 
3.655500e-01 5.372209e+02 
3.667300e-01 5.347893e+02 
3.679500e-01 5.323128e+02 
3.691900e-01 5.298164e+02 
3.703600e-01 5.274798e+02 
3.715700e-01 5.250825e+02 
3.727700e-01 5.227239e+02 
3.739900e-01 5.203515e+02 
3.752000e-01 5.180289e+02 
3.763900e-01 5.157626e+02 
3.775800e-01 5.135139e+02 
3.788200e-01 5.111893e+02 
3.800300e-01 5.089389e+02 
3.812100e-01 5.067678e+02 
3.824200e-01 5.045630e+02 
3.836100e-01 5.024114e+02 
3.848600e-01 5.001689e+02 
3.860400e-01 4.980685e+02 
3.872400e-01 4.959486e+02 
3.884600e-01 4.938197e+02 
3.896500e-01 4.917627e+02 
3.908700e-01 4.896699e+02 
3.920600e-01 4.876439e+02 
3.933100e-01 4.855321e+02 
3.945300e-01 4.834868e+02 
3.957200e-01 4.815150e+02 
3.969300e-01 4.795274e+02 
3.981700e-01 4.775059e+02 
3.993500e-01 4.755965e+02 
4.094840e-01 4.597670e+02 
4.272360e-01 4.344293e+02 
4.454600e-01 4.110231e+02 
4.630560e-01 3.905563e+02 
4.804610e-01 3.720871e+02 
4.980690e-01 3.549684e+02 
5.159230e-01 3.390354e+02 
5.317440e-01 3.259861e+02 
5.489640e-01 3.128240e+02 
5.671990e-01 2.999656e+02 
5.838690e-01 2.890755e+02 
6.018840e-01 2.781606e+02 
6.202330e-01 2.678760e+02 
6.379250e-01 2.586568e+02 
6.545410e-01 2.506010e+02 
6.714560e-01 2.429102e+02 
6.892080e-01 2.353664e+02 
7.066010e-01 2.284452e+02 
7.240540e-01 2.219162e+02 
7.420450e-01 2.156013e+02 
7.593780e-01 2.098687e+02 
7.764720e-01 2.045195e+02 
7.942840e-01 1.992463e+02 
8.116170e-01 1.943836e+02 
8.288310e-01 1.897954e+02 
8.462240e-01 1.853782e+02 
8.631980e-01 1.812638e+02 
8.810700e-01 1.771263e+02 
8.989410e-01 1.731742e+02 
9.166330e-01 1.694266e+02 
9.345640e-01 1.657854e+02 
9.515980e-01 1.624608e+02 
9.688720e-01 1.592146e+02 
9.865640e-01 1.560105e+02 
1.031870e+00 1.483184e+02 
1.063490e+00 1.433266e+02 
1.097920e+00 1.382274e+02 
1.134370e+00 1.331364e+02 
1.167730e+00 1.287489e+02 
1.203830e+00 1.242497e+02 
1.240470e+00 1.199422e+02 
1.275790e+00 1.159934e+02 
1.309140e+00 1.124580e+02 
1.342970e+00 1.090193e+02 
1.378420e+00 1.055972e+02 
1.413200e+00 1.023895e+02 
1.448110e+00 9.930743e+01 
1.484090e+00 9.628212e+01 
1.518820e+00 9.348076e+01 
1.552880e+00 9.084994e+01 
1.588630e+00 8.819849e+01 
1.623230e+00 8.574406e+01 
1.657720e+00 8.339362e+01 
1.692450e+00 8.112793e+01 
1.726400e+00 7.898488e+01 
1.762200e+00 7.681186e+01 
1.797880e+00 7.473557e+01 
1.833270e+00 7.274978e+01 
1.869070e+00 7.082129e+01 
1.903200e+00 6.904939e+01 
1.937740e+00 6.731925e+01 
1.973190e+00 6.560535e+01 
2.007440e+00 6.400935e+01 
2.042160e+00 6.244978e+01 
2.077900e+00 6.089445e+01 
2.112390e+00 5.945051e+01 
2.146220e+00 5.807282e+01 
2.181600e+00 5.668369e+01 
2.216930e+00 5.534364e+01 
2.250760e+00 5.409887e+01 
2.286500e+00 5.282538e+01 
2.321770e+00 5.161331e+01 
2.355950e+00 5.047849e+01 
2.391280e+00 4.933624e+01 
2.426240e+00 4.824078e+01 
2.460670e+00 4.719520e+01 
2.495640e+00 4.616607e+01 
2.531080e+00 4.515604e+01 
2.566220e+00 4.418184e+01 
2.600830e+00 4.325161e+01 
2.635080e+00 4.235992e+01 
2.670340e+00 4.146338e+01 
2.705970e+00 4.058628e+01 
2.740040e+00 3.977295e+01 
2.774520e+00 3.897135e+01 
2.809730e+00 3.817545e+01 
2.844390e+00 3.741428e+01 
2.879960e+00 3.665415e+01 
2.914860e+00 3.592855e+01 
2.949410e+00 3.523014e+01 
2.984440e+00 3.454001e+01 
3.019760e+00 3.386443e+01 
3.054730e+00 3.321472e+01 
3.089030e+00 3.259048e+01 
3.124060e+00 3.197088e+01 
3.159560e+00 3.136059e+01 
3.194710e+00 3.076989e+01 
3.229010e+00 3.020838e+01 
3.263320e+00 2.966136e+01 
3.297930e+00 2.912373e+01 
3.332830e+00 2.859470e+01 
3.368040e+00 2.807411e+01 
3.403300e+00 2.756589e+01 
3.438450e+00 2.707116e+01 
3.473060e+00 2.659641e+01 
3.508440e+00 2.612354e+01 
3.543110e+00 2.567166e+01 
3.577470e+00 2.523244e+01 
3.613040e+00 2.478923e+01 
3.648120e+00 2.436307e+01 
3.682910e+00 2.395049e+01 
3.718050e+00 2.354319e+01 
3.753320e+00 2.314399e+01 
3.787980e+00 2.276052e+01 
3.822290e+00 2.238996e+01 
3.857020e+00 2.202374e+01 
3.891920e+00 2.166359e+01 
3.926650e+00 2.131210e+01 
3.961970e+00 2.096311e+01 
3.997360e+00 2.062184e+01 
4.031670e+00 2.029841e+01 
4.066330e+00 1.997834e+01 
4.101420e+00 1.966163e+01 
4.136200e+00 1.935486e+01 
4.170810e+00 1.905636e+01 
4.206250e+00 1.875680e+01 
4.241580e+00 1.846469e+01 
4.276300e+00 1.818374e+01 
4.310970e+00 1.790914e+01 
4.346120e+00 1.763669e+01 
4.380600e+00 1.737506e+01 
4.414730e+00 1.712147e+01 
4.450350e+00 1.686212e+01 
4.485320e+00 1.661289e+01 
4.519810e+00 1.637209e+01 
4.555430e+00 1.612851e+01 
4.590870e+00 1.589122e+01 
4.625480e+00 1.566423e+01 
4.659910e+00 1.544292e+01 
4.695230e+00 1.522041e+01 
4.729960e+00 1.500598e+01 
4.764450e+00 1.479724e+01 
4.799530e+00 1.458911e+01 
4.834910e+00 1.438334e+01 
4.869700e+00 1.418504e+01 
4.904370e+00 1.399124e+01 
4.939450e+00 1.379893e+01 
4.973940e+00 1.361355e+01 
5.008430e+00 1.343163e+01 
5.043810e+00 1.324861e+01 
5.078840e+00 1.307087e+01 
5.113500e+00 1.289825e+01 
5.148890e+00 1.272545e+01 
5.184210e+00 1.255619e+01 
5.219060e+00 1.239229e+01 
5.253660e+00 1.223265e+01 
5.288570e+00 1.207446e+01 
5.323420e+00 1.191948e+01 
5.358440e+00 1.176663e+01 
5.393590e+00 1.161594e+01 
5.428310e+00 1.146988e+01 
5.462800e+00 1.132739e+01 
5.497640e+00 1.118592e+01 
5.532670e+00 1.104633e+01 
5.567280e+00 1.091083e+01 
5.602000e+00 1.077720e+01 
5.637270e+00 1.064397e+01 
5.672410e+00 1.051354e+01 
5.707020e+00 1.038722e+01 
5.742040e+00 1.026176e+01 
5.777430e+00 1.013714e+01 
5.812210e+00 1.001669e+01 
5.846820e+00 9.898953e+00 
5.881610e+00 9.782568e+00 
5.916510e+00 9.667700e+00 
5.951600e+00 9.554300e+00 
5.986560e+00 9.443235e+00 
6.021830e+00 9.332977e+00 
6.056490e+00 9.226498e+00 
6.091160e+00 9.121783e+00 
6.125830e+00 9.018694e+00 
6.161090e+00 8.915570e+00 
6.195760e+00 8.815925e+00 
6.230420e+00 8.717831e+00 
6.265690e+00 8.619553e+00 
6.300950e+00 8.523114e+00 
6.335620e+00 8.429726e+00 
6.370880e+00 8.336183e+00 
6.405550e+00 8.245769e+00 
6.440220e+00 8.156767e+00 
6.475480e+00 8.067596e+00 
6.510150e+00 7.981293e+00 
6.544810e+00 7.896456e+00 
6.580080e+00 7.811389e+00 
6.614750e+00 7.728986e+00 
6.649410e+00 7.648038e+00 
6.684080e+00 7.568272e+00 
6.719340e+00 7.488311e+00 
6.754010e+00 7.410881e+00 
6.788680e+00 7.334703e+00 
6.823940e+00 7.258323e+00 
6.859800e+00 7.181754e+00 
6.894470e+00 7.108952e+00 
6.929140e+00 7.037220e+00 
6.963800e+00 6.966494e+00 
6.999070e+00 6.895531e+00 
7.033730e+00 6.826971e+00 
7.068400e+00 6.759319e+00 
7.103660e+00 6.691452e+00 
7.138330e+00 6.625703e+00 
7.173600e+00 6.559885e+00 
7.208260e+00 6.496071e+00 
7.243530e+00 6.432001e+00 
7.277600e+00 6.371047e+00 
7.312860e+00 6.308902e+00 
7.348120e+00 6.247580e+00 
7.382790e+00 6.188075e+00 
7.417460e+00 6.129476e+00 
7.452720e+00 6.070726e+00 
7.487390e+00 6.013704e+00 
7.522650e+00 5.956458e+00 
7.557320e+00 5.901039e+00 
7.591990e+00 5.846375e+00 
7.627250e+00 5.791485e+00 
7.662510e+00 5.737295e+00 
7.697180e+00 5.684831e+00 
7.731850e+00 5.633075e+00 
7.766510e+00 5.581973e+00 
7.801180e+00 5.531485e+00 
7.836440e+00 5.480898e+00 
7.871110e+00 5.431846e+00 
7.906380e+00 5.382557e+00 
7.941040e+00 5.334710e+00 
7.976310e+00 5.286689e+00 
8.011570e+00 5.239356e+00 
8.046240e+00 5.193375e+00 
8.080900e+00 5.147954e+00 
8.115570e+00 5.103099e+00 
8.150830e+00 5.058177e+00 
8.185500e+00 5.014530e+00 
8.220770e+00 4.970651e+00 
8.255430e+00 4.928038e+00 
8.290100e+00 4.886045e+00 
8.324770e+00 4.844552e+00 
8.359430e+00 4.803549e+00 
8.394700e+00 4.762307e+00 
8.429960e+00 4.721641e+00 
8.464630e+00 4.682202e+00 
8.499890e+00 4.642550e+00 
8.534560e+00 4.604004e+00 
8.569200e+00 4.565924e+00 
