# Parameters:
# omega_b = 0.022500, omega_m = 0.137500, n_s = 0.950000, h = 69.033203, w = -1.000000,sigma_8 = 0.755000
# z = 0.490000
#
# k[1/Mpc] # P(k):
8.694000e-04 9.412025e+03 
2.077466e-03 1.982499e+04 
3.285532e-03 2.782251e+04 
4.493598e-03 3.387586e+04 
5.701664e-03 3.829722e+04 
6.909730e-03 4.136758e+04 
8.117797e-03 4.339062e+04 
9.325863e-03 4.452409e+04 
1.053393e-02 4.492370e+04 
1.174199e-02 4.473191e+04 
1.295006e-02 4.403947e+04 
1.415813e-02 4.296758e+04 
1.536619e-02 4.161750e+04 
1.657426e-02 4.005920e+04 
1.778233e-02 3.835540e+04 
1.899039e-02 3.659824e+04 
2.019846e-02 3.483659e+04 
2.140652e-02 3.311239e+04 
2.261459e-02 3.144850e+04 
2.382266e-02 2.987288e+04 
2.503072e-02 2.840429e+04 
2.623879e-02 2.704934e+04 
2.744685e-02 2.580981e+04 
2.865492e-02 2.468652e+04 
2.986299e-02 2.367424e+04 
3.100100e-02 2.281905e+04 
3.220400e-02 2.201029e+04 
3.288100e-02 2.159664e+04 
3.424300e-02 2.084402e+04 
3.555100e-02 2.020638e+04 
3.686000e-02 1.964054e+04 
3.795000e-02 1.921364e+04 
3.929100e-02 1.873553e+04 
4.039800e-02 1.836756e+04 
4.164000e-02 1.797501e+04 
4.294400e-02 1.757195e+04 
4.415000e-02 1.720470e+04 
4.542900e-02 1.680565e+04 
4.660900e-02 1.643324e+04 
4.782300e-02 1.602777e+04 
4.892900e-02 1.564929e+04 
5.031200e-02 1.515770e+04 
5.155900e-02 1.469637e+04 
5.238100e-02 1.438587e+04 
5.378200e-02 1.384935e+04 
5.513400e-02 1.332507e+04 
5.627600e-02 1.288226e+04 
5.735300e-02 1.246990e+04 
5.870100e-02 1.196581e+04 
5.988700e-02 1.153850e+04 
6.113500e-02 1.110816e+04 
6.225900e-02 1.074052e+04 
6.340100e-02 1.038875e+04 
6.480200e-02 9.987241e+03 
6.601100e-02 9.670574e+03 
6.725500e-02 9.372901e+03 
6.829100e-02 9.148483e+03 
6.958600e-02 8.892087e+03 
7.071100e-02 8.692703e+03 
7.192300e-02 8.498915e+03 
7.307400e-02 8.333149e+03 
7.412300e-02 8.195765e+03 
7.550400e-02 8.033557e+03 
7.663100e-02 7.912399e+03 
7.791200e-02 7.786820e+03 
7.912700e-02 7.675319e+03 
8.027600e-02 7.573817e+03 
8.138400e-02 7.478099e+03 
8.272200e-02 7.363421e+03 
8.406100e-02 7.247642e+03 
8.534100e-02 7.132552e+03 
8.653800e-02 7.020088e+03 
8.759800e-02 6.917694e+03 
8.900300e-02 6.776859e+03 
9.009000e-02 6.663204e+03 
9.113300e-02 6.549973e+03 
9.239600e-02 6.410933e+03 
9.358000e-02 6.277650e+03 
9.496100e-02 6.118773e+03 
9.608400e-02 5.989884e+03 
9.727500e-02 5.854472e+03 
9.852600e-02 5.712349e+03 
9.973800e-02 5.578499e+03 
1.009000e-01 5.453686e+03 
1.020900e-01 5.330863e+03 
1.034000e-01 5.201527e+03 
1.046000e-01 5.088517e+03 
1.057200e-01 4.990392e+03 
1.069100e-01 4.890883e+03 
1.082500e-01 4.787816e+03 
1.093900e-01 4.706601e+03 
1.105400e-01 4.629092e+03 
1.116900e-01 4.559162e+03 
1.129600e-01 4.485867e+03 
1.142000e-01 4.420966e+03 
1.153300e-01 4.364895e+03 
1.166400e-01 4.304004e+03 
1.177800e-01 4.253927e+03 
1.190000e-01 4.202367e+03 
1.201200e-01 4.156431e+03 
1.213400e-01 4.107622e+03 
1.227100e-01 4.052802e+03 
1.238900e-01 4.006217e+03 
1.250700e-01 3.958800e+03 
1.263200e-01 3.908765e+03 
1.275500e-01 3.858509e+03 
1.287500e-01 3.809328e+03 
1.299900e-01 3.757645e+03 
1.311300e-01 3.709992e+03 
1.323500e-01 3.658311e+03 
1.335900e-01 3.605969e+03 
1.347100e-01 3.558382e+03 
1.359800e-01 3.504987e+03 
1.372100e-01 3.453201e+03 
1.384300e-01 3.402691e+03 
1.395700e-01 3.355784e+03 
1.407700e-01 3.307429e+03 
1.420300e-01 3.257429e+03 
1.432800e-01 3.208947e+03 
1.444500e-01 3.164917e+03 
1.456300e-01 3.121433e+03 
1.468900e-01 3.076735e+03 
1.480500e-01 3.036667e+03 
1.491700e-01 2.999295e+03 
1.503800e-01 2.960428e+03 
1.516400e-01 2.921078e+03 
1.528200e-01 2.886224e+03 
1.540200e-01 2.851466e+03 
1.551900e-01 2.819398e+03 
1.564300e-01 2.786346e+03 
1.576600e-01 2.754730e+03 
1.588700e-01 2.724856e+03 
1.600900e-01 2.695340e+03 
1.612700e-01 2.668043e+03 
1.625400e-01 2.639210e+03 
1.637600e-01 2.612173e+03 
1.649500e-01 2.586359e+03 
1.662200e-01 2.559279e+03 
1.674000e-01 2.534389e+03 
1.685000e-01 2.511573e+03 
1.697500e-01 2.485783e+03 
1.710300e-01 2.459552e+03 
1.722200e-01 2.435597e+03 
1.734400e-01 2.410709e+03 
1.746400e-01 2.386619e+03 
1.758700e-01 2.362111e+03 
1.770900e-01 2.337734e+03 
1.782700e-01 2.314553e+03 
1.794600e-01 2.291235e+03 
1.807000e-01 2.267126e+03 
1.819100e-01 2.243999e+03 
1.830100e-01 2.223084e+03 
1.842200e-01 2.200402e+03 
1.855000e-01 2.176812e+03 
1.867000e-01 2.155050e+03 
1.879200e-01 2.133284e+03 
1.890900e-01 2.112774e+03 
1.902800e-01 2.092408e+03 
1.915200e-01 2.071524e+03 
1.926900e-01 2.052202e+03 
1.939000e-01 2.032765e+03 
1.951700e-01 2.012690e+03 
1.963100e-01 1.995043e+03 
1.975100e-01 1.977000e+03 
1.987800e-01 1.958202e+03 
2.000100e-01 1.940372e+03 
2.012500e-01 1.922887e+03 
2.023400e-01 1.907738e+03 
2.036100e-01 1.890390e+03 
2.048900e-01 1.873361e+03 
2.060400e-01 1.858286e+03 
2.072200e-01 1.843043e+03 
2.084200e-01 1.827873e+03 
2.096900e-01 1.812053e+03 
2.109200e-01 1.796956e+03 
2.121100e-01 1.782581e+03 
2.132700e-01 1.768761e+03 
2.145200e-01 1.754075e+03 
2.157200e-01 1.740162e+03 
2.168800e-01 1.726887e+03 
2.180700e-01 1.713451e+03 
2.193400e-01 1.699294e+03 
2.206000e-01 1.685416e+03 
2.217500e-01 1.672921e+03 
2.229500e-01 1.660052e+03 
2.241400e-01 1.647425e+03 
2.253500e-01 1.634755e+03 
2.264900e-01 1.622971e+03 
2.277100e-01 1.610507e+03 
2.289900e-01 1.597592e+03 
2.301500e-01 1.586042e+03 
2.313600e-01 1.574146e+03 
2.325600e-01 1.562510e+03 
2.337700e-01 1.550928e+03 
2.350000e-01 1.539305e+03 
2.362000e-01 1.528127e+03 
2.374100e-01 1.517018e+03 
2.386500e-01 1.505779e+03 
2.399100e-01 1.494505e+03 
2.410400e-01 1.484566e+03 
2.422500e-01 1.474056e+03 
2.435000e-01 1.463334e+03 
2.447300e-01 1.452928e+03 
2.458700e-01 1.443443e+03 
2.470600e-01 1.433657e+03 
2.483300e-01 1.423341e+03 
2.495600e-01 1.413504e+03 
2.507600e-01 1.404062e+03 
2.519600e-01 1.394732e+03 
2.532200e-01 1.385052e+03 
2.543700e-01 1.376351e+03 
2.555500e-01 1.367545e+03 
2.568000e-01 1.358324e+03 
2.580100e-01 1.349504e+03 
2.592400e-01 1.340674e+03 
2.604100e-01 1.332384e+03 
2.616100e-01 1.323977e+03 
2.628400e-01 1.315457e+03 
2.640600e-01 1.307129e+03 
2.652200e-01 1.299308e+03 
2.664300e-01 1.291240e+03 
2.676500e-01 1.283195e+03 
2.688400e-01 1.275451e+03 
2.700700e-01 1.267546e+03 
2.712400e-01 1.260107e+03 
2.724800e-01 1.252310e+03 
2.736700e-01 1.244908e+03 
2.748800e-01 1.237463e+03 
2.761000e-01 1.230037e+03 
2.773200e-01 1.222692e+03 
2.785400e-01 1.215428e+03 
2.797000e-01 1.208597e+03 
2.808900e-01 1.201662e+03 
2.821400e-01 1.194455e+03 
2.833900e-01 1.187326e+03 
2.845500e-01 1.180775e+03 
2.857800e-01 1.173901e+03 
2.870300e-01 1.166989e+03 
2.882100e-01 1.160532e+03 
2.893900e-01 1.154137e+03 
2.906300e-01 1.147484e+03 
2.918900e-01 1.140794e+03 
2.930500e-01 1.134698e+03 
2.942500e-01 1.128454e+03 
2.954200e-01 1.122425e+03 
2.966500e-01 1.116149e+03 
2.978900e-01 1.109887e+03 
2.990400e-01 1.104137e+03 
3.002700e-01 1.098048e+03 
3.015100e-01 1.091972e+03 
3.026800e-01 1.086295e+03 
3.038500e-01 1.080672e+03 
3.050300e-01 1.075055e+03 
3.062600e-01 1.069261e+03 
3.075000e-01 1.063478e+03 
3.087000e-01 1.057935e+03 
3.099100e-01 1.052400e+03 
3.111200e-01 1.046922e+03 
3.123100e-01 1.041594e+03 
3.135300e-01 1.036182e+03 
3.147300e-01 1.030909e+03 
3.159900e-01 1.025426e+03 
3.171800e-01 1.020304e+03 
3.183700e-01 1.015234e+03 
3.196300e-01 1.009917e+03 
3.208400e-01 1.004859e+03 
3.220300e-01 9.999296e+02 
3.232000e-01 9.951415e+02 
3.244300e-01 9.901595e+02 
3.256700e-01 9.851837e+02 
3.269200e-01 9.802146e+02 
3.280800e-01 9.756448e+02 
3.292500e-01 9.710903e+02 
3.304800e-01 9.663493e+02 
3.317100e-01 9.616515e+02 
3.328900e-01 9.571847e+02 
3.340700e-01 9.527566e+02 
3.353600e-01 9.479768e+02 
3.365300e-01 9.436872e+02 
3.377100e-01 9.393977e+02 
3.389200e-01 9.350373e+02 
3.401600e-01 9.306081e+02 
3.413700e-01 9.263363e+02 
3.425300e-01 9.222841e+02 
3.437700e-01 9.179895e+02 
3.449800e-01 9.138352e+02 
3.461800e-01 9.097505e+02 
3.473600e-01 9.057738e+02 
3.485800e-01 9.017124e+02 
3.498100e-01 8.976529e+02 
3.510200e-01 8.936933e+02 
3.522000e-01 8.898640e+02 
3.533900e-01 8.860340e+02 
3.546400e-01 8.820668e+02 
3.558400e-01 8.782917e+02 
3.570600e-01 8.744855e+02 
3.582700e-01 8.707419e+02 
3.595000e-01 8.669680e+02 
3.607100e-01 8.632961e+02 
3.618900e-01 8.597521e+02 
3.631200e-01 8.560878e+02 
3.643200e-01 8.525421e+02 
3.655500e-01 8.489374e+02 
3.667300e-01 8.455070e+02 
3.679500e-01 8.420149e+02 
3.691900e-01 8.384946e+02 
3.703600e-01 8.351994e+02 
3.715700e-01 8.318183e+02 
3.727700e-01 8.284916e+02 
3.739900e-01 8.251389e+02 
3.752000e-01 8.218447e+02 
3.763900e-01 8.186303e+02 
3.775800e-01 8.154406e+02 
3.788200e-01 8.121430e+02 
3.800300e-01 8.089506e+02 
3.812100e-01 8.058549e+02 
3.824200e-01 8.027005e+02 
3.836100e-01 7.996220e+02 
3.848600e-01 7.964134e+02 
3.860400e-01 7.934078e+02 
3.872400e-01 7.903742e+02 
3.884600e-01 7.873415e+02 
3.896500e-01 7.844162e+02 
3.908700e-01 7.814397e+02 
3.920600e-01 7.785583e+02 
3.933100e-01 7.755546e+02 
3.945300e-01 7.726455e+02 
3.957200e-01 7.698223e+02 
3.969300e-01 7.669710e+02 
3.981700e-01 7.640710e+02 
3.993500e-01 7.613318e+02 
4.094840e-01 7.385388e+02 
4.272360e-01 7.019843e+02 
4.454600e-01 6.679596e+02 
4.630560e-01 6.380157e+02 
4.804610e-01 6.108362e+02 
4.980690e-01 5.855900e+02 
5.159230e-01 5.619992e+02 
5.317440e-01 5.426820e+02 
5.489640e-01 5.230698e+02 
5.671990e-01 5.038147e+02 
5.838690e-01 4.874875e+02 
6.018840e-01 4.710975e+02 
6.202330e-01 4.556145e+02 
6.379250e-01 4.416349e+02 
6.545410e-01 4.293683e+02 
6.714560e-01 4.176277e+02 
6.892080e-01 4.060303e+02 
7.066010e-01 3.952814e+02 
7.240540e-01 3.851172e+02 
7.420450e-01 3.752717e+02 
7.593780e-01 3.661940e+02 
7.764720e-01 3.577046e+02 
7.942840e-01 3.493030e+02 
8.116170e-01 3.414332e+02 
8.288310e-01 3.339957e+02 
8.462240e-01 3.267469e+02 
8.631980e-01 3.199613e+02 
8.810700e-01 3.131046e+02 
8.989410e-01 3.065248e+02 
9.166330e-01 3.002272e+02 
9.345640e-01 2.940331e+02 
9.515980e-01 2.883507e+02 
9.688720e-01 2.827922e+02 
9.865640e-01 2.772655e+02 
1.031870e+00 2.638440e+02 
1.063490e+00 2.550608e+02 
1.097920e+00 2.459674e+02 
1.134370e+00 2.368833e+02 
1.167730e+00 2.289414e+02 
1.203830e+00 2.207920e+02 
1.240470e+00 2.129352e+02 
1.275790e+00 2.056945e+02 
1.309140e+00 1.991967e+02 
1.342970e+00 1.928509e+02 
1.378420e+00 1.865371e+02 
1.413200e+00 1.805917e+02 
1.448110e+00 1.748859e+02 
1.484090e+00 1.692711e+02 
1.518820e+00 1.640808e+02 
1.552880e+00 1.591777e+02 
1.588630e+00 1.542639e+02 
1.623230e+00 1.497074e+02 
1.657720e+00 1.453451e+02 
1.692450e+00 1.411554e+02 
1.726400e+00 1.371829e+02 
1.762200e+00 1.331558e+02 
1.797880e+00 1.293105e+02 
1.833270e+00 1.256500e+02 
1.869070e+00 1.220857e+02 
1.903200e+00 1.188267e+02 
1.937740e+00 1.156470e+02 
1.973190e+00 1.125017e+02 
2.007440e+00 1.095734e+02 
2.042160e+00 1.067123e+02 
2.077900e+00 1.038695e+02 
2.112390e+00 1.012406e+02 
2.146220e+00 9.872729e+01 
2.181600e+00 9.620510e+01 
2.216930e+00 9.377558e+01 
2.250760e+00 9.152400e+01 
2.286500e+00 8.922381e+01 
2.321770e+00 8.703372e+01 
2.355950e+00 8.498269e+01 
2.391280e+00 8.292571e+01 
2.426240e+00 8.096343e+01 
2.460670e+00 7.909179e+01 
2.495640e+00 7.724548e+01 
2.531080e+00 7.544394e+01 
2.566220e+00 7.371047e+01 
2.600830e+00 7.205658e+01 
2.635080e+00 7.047148e+01 
2.670340e+00 6.888318e+01 
2.705970e+00 6.733480e+01 
2.740040e+00 6.590123e+01 
2.774520e+00 6.448452e+01 
2.809730e+00 6.308505e+01 
2.844390e+00 6.175010e+01 
2.879960e+00 6.041858e+01 
2.914860e+00 5.914934e+01 
2.949410e+00 5.793022e+01 
2.984440e+00 5.673234e+01 
3.019760e+00 5.555560e+01 
3.054730e+00 5.442239e+01 
3.089030e+00 5.334306e+01 
3.124060e+00 5.227198e+01 
3.159560e+00 5.121709e+01 
3.194710e+00 5.020245e+01 
3.229010e+00 4.923975e+01 
3.263320e+00 4.829737e+01 
3.297930e+00 4.737344e+01 
3.332830e+00 4.646839e+01 
3.368040e+00 4.557881e+01 
3.403300e+00 4.471121e+01 
3.438450e+00 4.386752e+01 
3.473060e+00 4.305841e+01 
3.508440e+00 4.225614e+01 
3.543110e+00 4.149016e+01 
3.577470e+00 4.074771e+01 
3.613040e+00 3.999957e+01 
3.648120e+00 3.928261e+01 
3.682910e+00 3.858779e+01 
3.718050e+00 3.790021e+01 
3.753320e+00 3.722926e+01 
3.787980e+00 3.658889e+01 
3.822290e+00 3.596897e+01 
3.857020e+00 3.535450e+01 
3.891920e+00 3.475192e+01 
3.926650e+00 3.416672e+01 
3.961970e+00 3.358565e+01 
3.997360e+00 3.301710e+01 
4.031670e+00 3.247899e+01 
4.066330e+00 3.194897e+01 
4.101420e+00 3.142466e+01 
4.136200e+00 3.091637e+01 
4.170810e+00 3.042193e+01 
4.206250e+00 2.992817e+01 
4.241580e+00 2.944726e+01 
4.276300e+00 2.898469e+01 
4.310970e+00 2.853261e+01 
4.346120e+00 2.808483e+01 
4.380600e+00 2.765602e+01 
4.414730e+00 2.724049e+01 
4.450350e+00 2.681549e+01 
4.485320e+00 2.640716e+01 
4.519810e+00 2.601389e+01 
4.555430e+00 2.561669e+01 
4.590870e+00 2.523022e+01 
4.625480e+00 2.486142e+01 
4.659910e+00 2.450193e+01 
4.695230e+00 2.414038e+01 
4.729960e+00 2.379201e+01 
4.764450e+00 2.345280e+01 
4.799530e+00 2.311444e+01 
4.834910e+00 2.277998e+01 
4.869700e+00 2.245991e+01 
4.904370e+00 2.214749e+01 
4.939450e+00 2.183740e+01 
4.973940e+00 2.153821e+01 
5.008430e+00 2.124466e+01 
5.043810e+00 2.094914e+01 
5.078840e+00 2.066205e+01 
5.113500e+00 2.038330e+01 
5.148890e+00 2.010627e+01 
5.184210e+00 1.983504e+01 
5.219060e+00 1.957201e+01 
5.253660e+00 1.931465e+01 
5.288570e+00 1.905967e+01 
5.323420e+00 1.881075e+01 
5.358440e+00 1.856626e+01 
5.393590e+00 1.832523e+01 
5.428310e+00 1.809132e+01 
5.462800e+00 1.786299e+01 
5.497640e+00 1.763635e+01 
5.532670e+00 1.741391e+01 
5.567280e+00 1.719838e+01 
5.602000e+00 1.698584e+01 
5.637270e+00 1.677277e+01 
5.672410e+00 1.656392e+01 
5.707020e+00 1.636168e+01 
5.742040e+00 1.616199e+01 
5.777430e+00 1.596390e+01 
5.812210e+00 1.577244e+01 
5.846820e+00 1.558498e+01 
5.881610e+00 1.539958e+01 
5.916510e+00 1.521661e+01 
5.951600e+00 1.503624e+01 
5.986560e+00 1.485970e+01 
6.021830e+00 1.468446e+01 
6.056490e+00 1.451540e+01 
6.091160e+00 1.434928e+01 
6.125830e+00 1.418574e+01 
6.161090e+00 1.402202e+01 
6.195760e+00 1.386352e+01 
6.230420e+00 1.370751e+01 
6.265690e+00 1.355122e+01 
6.300950e+00 1.339815e+01 
6.335620e+00 1.324994e+01 
6.370880e+00 1.310149e+01 
6.405550e+00 1.295816e+01 
6.440220e+00 1.281713e+01 
6.475480e+00 1.267584e+01 
6.510150e+00 1.253918e+01 
6.544810e+00 1.240503e+01 
6.580080e+00 1.227051e+01 
6.614750e+00 1.214022e+01 
6.649410e+00 1.201186e+01 
6.684080e+00 1.188530e+01 
6.719340e+00 1.175845e+01 
6.754010e+00 1.163568e+01 
6.788680e+00 1.151503e+01 
6.823940e+00 1.139408e+01 
6.859800e+00 1.127282e+01 
6.894470e+00 1.115766e+01 
6.929140e+00 1.104424e+01 
6.963800e+00 1.093241e+01 
6.999070e+00 1.082019e+01 
7.033730e+00 1.071146e+01 
7.068400e+00 1.060418e+01 
7.103660e+00 1.049656e+01 
7.138330e+00 1.039250e+01 
7.173600e+00 1.028872e+01 
7.208260e+00 1.018811e+01 
7.243530e+00 1.008710e+01 
7.277600e+00 9.990588e+00 
7.312860e+00 9.891820e+00 
7.348120e+00 9.794370e+00 
7.382790e+00 9.699813e+00 
7.417460e+00 9.607058e+00 
7.452720e+00 9.514250e+00 
7.487390e+00 9.424178e+00 
7.522650e+00 9.333756e+00 
7.557320e+00 9.246015e+00 
7.591990e+00 9.159397e+00 
7.627250e+00 9.072428e+00 
7.662510e+00 8.986573e+00 
7.697180e+00 8.903513e+00 
7.731850e+00 8.821600e+00 
7.766510e+00 8.740728e+00 
7.801180e+00 8.660833e+00 
7.836440e+00 8.580604e+00 
7.871110e+00 8.502703e+00 
7.906380e+00 8.424431e+00 
7.941040e+00 8.348458e+00 
7.976310e+00 8.272271e+00 
8.011570e+00 8.197252e+00 
8.046240e+00 8.124382e+00 
8.080900e+00 8.052405e+00 
8.115570e+00 7.981308e+00 
8.150830e+00 7.910032e+00 
8.185500e+00 7.840783e+00 
8.220770e+00 7.771173e+00 
8.255430e+00 7.703576e+00 
8.290100e+00 7.636927e+00 
8.324770e+00 7.571074e+00 
8.359430e+00 7.506003e+00 
8.394700e+00 7.440557e+00 
8.429960e+00 7.375998e+00 
8.464630e+00 7.313355e+00 
8.499890e+00 7.250378e+00 
8.534560e+00 7.189166e+00 
8.569200e+00 7.128698e+00 
