# Parameters:
# omega_b = 0.022000, omega_m = 0.137500, n_s = 0.950000, h = 68.486328, w = -1.000000,sigma_8 = 0.755000
# z = 0.500000
#
# k[1/Mpc] # P(k):
8.694000e-04 9.275041e+03 
2.077466e-03 1.951201e+04 
3.285532e-03 2.737879e+04 
4.493598e-03 3.334283e+04 
5.701664e-03 3.770890e+04 
6.909730e-03 4.075103e+04 
8.117797e-03 4.276579e+04 
9.325863e-03 4.390718e+04 
1.053393e-02 4.432729e+04 
1.174199e-02 4.416544e+04 
1.295006e-02 4.351021e+04 
1.415813e-02 4.248012e+04 
1.536619e-02 4.117428e+04 
1.657426e-02 3.966110e+04 
1.778233e-02 3.800190e+04 
1.899039e-02 3.628705e+04 
2.019846e-02 3.456450e+04 
2.140652e-02 3.287568e+04 
2.261459e-02 3.124297e+04 
2.382266e-02 2.969414e+04 
2.503072e-02 2.824809e+04 
2.623879e-02 2.691167e+04 
2.744685e-02 2.568672e+04 
2.865492e-02 2.457473e+04 
2.986299e-02 2.357092e+04 
3.100100e-02 2.272136e+04 
3.220400e-02 2.191657e+04 
3.288100e-02 2.150439e+04 
3.424300e-02 2.075351e+04 
3.555100e-02 2.011655e+04 
3.686000e-02 1.955082e+04 
3.795000e-02 1.912387e+04 
3.929100e-02 1.864587e+04 
4.039800e-02 1.827837e+04 
4.164000e-02 1.788685e+04 
4.294400e-02 1.748589e+04 
4.415000e-02 1.712129e+04 
4.542900e-02 1.672612e+04 
4.660900e-02 1.635793e+04 
4.782300e-02 1.595780e+04 
4.892900e-02 1.558459e+04 
5.031200e-02 1.510016e+04 
5.155900e-02 1.464562e+04 
5.238100e-02 1.433963e+04 
5.378200e-02 1.381070e+04 
5.513400e-02 1.329341e+04 
5.627600e-02 1.285608e+04 
5.735300e-02 1.244843e+04 
5.870100e-02 1.194951e+04 
5.988700e-02 1.152604e+04 
6.113500e-02 1.109900e+04 
6.225900e-02 1.073364e+04 
6.340100e-02 1.038353e+04 
6.480200e-02 9.983341e+03 
6.601100e-02 9.667087e+03 
6.725500e-02 9.369269e+03 
6.829100e-02 9.144298e+03 
6.958600e-02 8.886896e+03 
7.071100e-02 8.686339e+03 
7.192300e-02 8.491088e+03 
7.307400e-02 8.323827e+03 
7.412300e-02 8.185047e+03 
7.550400e-02 8.021023e+03 
7.663100e-02 7.898477e+03 
7.791200e-02 7.771537e+03 
7.912700e-02 7.659042e+03 
8.027600e-02 7.556892e+03 
8.138400e-02 7.460813e+03 
8.272200e-02 7.346082e+03 
8.406100e-02 7.230669e+03 
8.534100e-02 7.116406e+03 
8.653800e-02 7.005059e+03 
8.759800e-02 6.903834e+03 
8.900300e-02 6.764794e+03 
9.009000e-02 6.652685e+03 
9.113300e-02 6.541012e+03 
9.239600e-02 6.403870e+03 
9.358000e-02 6.272348e+03 
9.496100e-02 6.115410e+03 
9.608400e-02 5.987965e+03 
9.727500e-02 5.853958e+03 
9.852600e-02 5.713018e+03 
9.973800e-02 5.580123e+03 
1.009000e-01 5.456069e+03 
1.020900e-01 5.333669e+03 
1.034000e-01 5.204624e+03 
1.046000e-01 5.091705e+03 
1.057200e-01 4.993401e+03 
1.069100e-01 4.893618e+03 
1.082500e-01 4.790013e+03 
1.093900e-01 4.708230e+03 
1.105400e-01 4.630096e+03 
1.116900e-01 4.559442e+03 
1.129600e-01 4.485345e+03 
1.142000e-01 4.419643e+03 
1.153300e-01 4.362883e+03 
1.166400e-01 4.301247e+03 
1.177800e-01 4.250623e+03 
1.190000e-01 4.198531e+03 
1.201200e-01 4.152290e+03 
1.213400e-01 4.103188e+03 
1.227100e-01 4.048334e+03 
1.238900e-01 4.001782e+03 
1.250700e-01 3.954594e+03 
1.263200e-01 3.904865e+03 
1.275500e-01 3.855057e+03 
1.287500e-01 3.806364e+03 
1.299900e-01 3.755268e+03 
1.311300e-01 3.708166e+03 
1.323500e-01 3.657097e+03 
1.335900e-01 3.605349e+03 
1.347100e-01 3.558268e+03 
1.359800e-01 3.505400e+03 
1.372100e-01 3.454044e+03 
1.384300e-01 3.403909e+03 
1.395700e-01 3.357247e+03 
1.407700e-01 3.309130e+03 
1.420300e-01 3.259229e+03 
1.432800e-01 3.210843e+03 
1.444500e-01 3.166759e+03 
1.456300e-01 3.123222e+03 
1.468900e-01 3.078394e+03 
1.480500e-01 3.038188e+03 
1.491700e-01 3.000662e+03 
1.503800e-01 2.961602e+03 
1.516400e-01 2.922055e+03 
1.528200e-01 2.887011e+03 
1.540200e-01 2.852066e+03 
1.551900e-01 2.819836e+03 
1.564300e-01 2.786621e+03 
1.576600e-01 2.754866e+03 
1.588700e-01 2.724884e+03 
1.600900e-01 2.695263e+03 
1.612700e-01 2.667918e+03 
1.625400e-01 2.639035e+03 
1.637600e-01 2.611982e+03 
1.649500e-01 2.586172e+03 
1.662200e-01 2.559103e+03 
1.674000e-01 2.534258e+03 
1.685000e-01 2.511484e+03 
1.697500e-01 2.485755e+03 
1.710300e-01 2.459600e+03 
1.722200e-01 2.435713e+03 
1.734400e-01 2.410908e+03 
1.746400e-01 2.386897e+03 
1.758700e-01 2.362469e+03 
1.770900e-01 2.338169e+03 
1.782700e-01 2.315061e+03 
1.794600e-01 2.291809e+03 
1.807000e-01 2.267764e+03 
1.819100e-01 2.244696e+03 
1.830100e-01 2.223821e+03 
1.842200e-01 2.201180e+03 
1.855000e-01 2.177632e+03 
1.867000e-01 2.155890e+03 
1.879200e-01 2.134143e+03 
1.890900e-01 2.113649e+03 
1.902800e-01 2.093284e+03 
1.915200e-01 2.072402e+03 
1.926900e-01 2.053078e+03 
1.939000e-01 2.033630e+03 
1.951700e-01 2.013543e+03 
1.963100e-01 1.995883e+03 
1.975100e-01 1.977822e+03 
1.987800e-01 1.959003e+03 
2.000100e-01 1.941154e+03 
2.012500e-01 1.923649e+03 
2.023400e-01 1.908482e+03 
2.036100e-01 1.891114e+03 
2.048900e-01 1.874069e+03 
2.060400e-01 1.858979e+03 
2.072200e-01 1.843720e+03 
2.084200e-01 1.828542e+03 
2.096900e-01 1.812712e+03 
2.109200e-01 1.797606e+03 
2.121100e-01 1.783228e+03 
2.132700e-01 1.769405e+03 
2.145200e-01 1.754717e+03 
2.157200e-01 1.740807e+03 
2.168800e-01 1.727537e+03 
2.180700e-01 1.714106e+03 
2.193400e-01 1.699956e+03 
2.206000e-01 1.686087e+03 
2.217500e-01 1.673599e+03 
2.229500e-01 1.660738e+03 
2.241400e-01 1.648122e+03 
2.253500e-01 1.635462e+03 
2.264900e-01 1.623688e+03 
2.277100e-01 1.611236e+03 
2.289900e-01 1.598332e+03 
2.301500e-01 1.586792e+03 
2.313600e-01 1.574907e+03 
2.325600e-01 1.563280e+03 
2.337700e-01 1.551707e+03 
2.350000e-01 1.540093e+03 
2.362000e-01 1.528923e+03 
2.374100e-01 1.517819e+03 
2.386500e-01 1.506586e+03 
2.399100e-01 1.495318e+03 
2.410400e-01 1.485382e+03 
2.422500e-01 1.474875e+03 
2.435000e-01 1.464157e+03 
2.447300e-01 1.453753e+03 
2.458700e-01 1.444269e+03 
2.470600e-01 1.434483e+03 
2.483300e-01 1.424168e+03 
2.495600e-01 1.414331e+03 
2.507600e-01 1.404888e+03 
2.519600e-01 1.395555e+03 
2.532200e-01 1.385874e+03 
2.543700e-01 1.377171e+03 
2.555500e-01 1.368362e+03 
2.568000e-01 1.359138e+03 
2.580100e-01 1.350315e+03 
2.592400e-01 1.341482e+03 
2.604100e-01 1.333189e+03 
2.616100e-01 1.324778e+03 
2.628400e-01 1.316255e+03 
2.640600e-01 1.307924e+03 
2.652200e-01 1.300099e+03 
2.664300e-01 1.292027e+03 
2.676500e-01 1.283980e+03 
2.688400e-01 1.276232e+03 
2.700700e-01 1.268323e+03 
2.712400e-01 1.260881e+03 
2.724800e-01 1.253081e+03 
2.736700e-01 1.245676e+03 
2.748800e-01 1.238228e+03 
2.761000e-01 1.230800e+03 
2.773200e-01 1.223452e+03 
2.785400e-01 1.216185e+03 
2.797000e-01 1.209352e+03 
2.808900e-01 1.202415e+03 
2.821400e-01 1.195205e+03 
2.833900e-01 1.188074e+03 
2.845500e-01 1.181521e+03 
2.857800e-01 1.174645e+03 
2.870300e-01 1.167731e+03 
2.882100e-01 1.161272e+03 
2.893900e-01 1.154875e+03 
2.906300e-01 1.148220e+03 
2.918900e-01 1.141529e+03 
2.930500e-01 1.135432e+03 
2.942500e-01 1.129186e+03 
2.954200e-01 1.123155e+03 
2.966500e-01 1.116878e+03 
2.978900e-01 1.110614e+03 
2.990400e-01 1.104862e+03 
3.002700e-01 1.098771e+03 
3.015100e-01 1.092694e+03 
3.026800e-01 1.087016e+03 
3.038500e-01 1.081391e+03 
3.050300e-01 1.075773e+03 
3.062600e-01 1.069977e+03 
3.075000e-01 1.064192e+03 
3.087000e-01 1.058649e+03 
3.099100e-01 1.053112e+03 
3.111200e-01 1.047632e+03 
3.123100e-01 1.042302e+03 
3.135300e-01 1.036889e+03 
3.147300e-01 1.031614e+03 
3.159900e-01 1.026129e+03 
3.171800e-01 1.021006e+03 
3.183700e-01 1.015934e+03 
3.196300e-01 1.010615e+03 
3.208400e-01 1.005555e+03 
3.220300e-01 1.000624e+03 
3.232000e-01 9.958342e+02 
3.244300e-01 9.908503e+02 
3.256700e-01 9.858726e+02 
3.269200e-01 9.809017e+02 
3.280800e-01 9.763303e+02 
3.292500e-01 9.717739e+02 
3.304800e-01 9.670312e+02 
3.317100e-01 9.623315e+02 
3.328900e-01 9.578630e+02 
3.340700e-01 9.534332e+02 
3.353600e-01 9.486515e+02 
3.365300e-01 9.443601e+02 
3.377100e-01 9.400690e+02 
3.389200e-01 9.357068e+02 
3.401600e-01 9.312759e+02 
3.413700e-01 9.270023e+02 
3.425300e-01 9.229485e+02 
3.437700e-01 9.186521e+02 
3.449800e-01 9.144962e+02 
3.461800e-01 9.104097e+02 
3.473600e-01 9.064315e+02 
3.485800e-01 9.023688e+02 
3.498100e-01 8.983078e+02 
3.510200e-01 8.943469e+02 
3.522000e-01 8.905164e+02 
3.533900e-01 8.866851e+02 
3.546400e-01 8.827164e+02 
3.558400e-01 8.789397e+02 
3.570600e-01 8.751321e+02 
3.582700e-01 8.713870e+02 
3.595000e-01 8.676116e+02 
3.607100e-01 8.639384e+02 
3.618900e-01 8.603930e+02 
3.631200e-01 8.567274e+02 
3.643200e-01 8.531804e+02 
3.655500e-01 8.495744e+02 
3.667300e-01 8.461427e+02 
3.679500e-01 8.426486e+02 
3.691900e-01 8.391262e+02 
3.703600e-01 8.358290e+02 
3.715700e-01 8.324459e+02 
3.727700e-01 8.291173e+02 
3.739900e-01 8.257629e+02 
3.752000e-01 8.224675e+02 
3.763900e-01 8.192520e+02 
3.775800e-01 8.160612e+02 
3.788200e-01 8.127624e+02 
3.800300e-01 8.095689e+02 
3.812100e-01 8.064726e+02 
3.824200e-01 8.033179e+02 
3.836100e-01 8.002391e+02 
3.848600e-01 7.970301e+02 
3.860400e-01 7.940242e+02 
3.872400e-01 7.909904e+02 
3.884600e-01 7.879563e+02 
3.896500e-01 7.850292e+02 
3.908700e-01 7.820510e+02 
3.920600e-01 7.791678e+02 
3.933100e-01 7.761624e+02 
3.945300e-01 7.732515e+02 
3.957200e-01 7.704271e+02 
3.969300e-01 7.675748e+02 
3.981700e-01 7.646737e+02 
3.993500e-01 7.619335e+02 
4.094840e-01 7.391343e+02 
4.272360e-01 7.025585e+02 
4.454600e-01 6.685119e+02 
4.630560e-01 6.385466e+02 
4.804610e-01 6.113464e+02 
4.980690e-01 5.860761e+02 
5.159230e-01 5.624627e+02 
5.317440e-01 5.431232e+02 
5.489640e-01 5.234927e+02 
5.671990e-01 5.042231e+02 
5.838690e-01 4.878823e+02 
6.018840e-01 4.714785e+02 
6.202330e-01 4.559826e+02 
6.379250e-01 4.419949e+02 
6.545410e-01 4.297216e+02 
6.714560e-01 4.179740e+02 
6.892080e-01 4.063720e+02 
7.066010e-01 3.956213e+02 
7.240540e-01 3.854536e+02 
7.420450e-01 3.756022e+02 
7.593780e-01 3.665233e+02 
7.764720e-01 3.580307e+02 
7.942840e-01 3.496247e+02 
8.116170e-01 3.417536e+02 
8.288310e-01 3.343119e+02 
8.462240e-01 3.270610e+02 
8.631980e-01 3.202722e+02 
8.810700e-01 3.134111e+02 
8.989410e-01 3.068256e+02 
9.166330e-01 3.005229e+02 
9.345640e-01 2.943251e+02 
9.515980e-01 2.886382e+02 
9.688720e-01 2.830737e+02 
9.865640e-01 2.775407e+02 
1.031870e+00 2.641046e+02 
1.063490e+00 2.553080e+02 
1.097920e+00 2.462038e+02 
1.134370e+00 2.371030e+02 
1.167730e+00 2.291494e+02 
1.203830e+00 2.209848e+02 
1.240470e+00 2.131141e+02 
1.275790e+00 2.058598e+02 
1.309140e+00 1.993495e+02 
1.342970e+00 1.929911e+02 
1.378420e+00 1.866642e+02 
1.413200e+00 1.807073e+02 
1.448110e+00 1.749891e+02 
1.484090e+00 1.693630e+02 
1.518820e+00 1.641609e+02 
1.552880e+00 1.592490e+02 
1.588630e+00 1.543243e+02 
1.623230e+00 1.497586e+02 
1.657720e+00 1.453875e+02 
1.692450e+00 1.411893e+02 
1.726400e+00 1.372087e+02 
1.762200e+00 1.331738e+02 
1.797880e+00 1.293217e+02 
1.833270e+00 1.256534e+02 
1.869070e+00 1.220831e+02 
1.903200e+00 1.188179e+02 
1.937740e+00 1.156322e+02 
1.973190e+00 1.124812e+02 
2.007440e+00 1.095481e+02 
2.042160e+00 1.066828e+02 
2.077900e+00 1.038352e+02 
2.112390e+00 1.012020e+02 
2.146220e+00 9.868472e+01 
2.181600e+00 9.615866e+01 
2.216930e+00 9.372556e+01 
2.250760e+00 9.147038e+01 
2.286500e+00 8.916659e+01 
2.321770e+00 8.697379e+01 
2.355950e+00 8.492089e+01 
2.391280e+00 8.286152e+01 
2.426240e+00 8.089661e+01 
2.460670e+00 7.902262e+01 
2.495640e+00 7.717448e+01 
2.531080e+00 7.537125e+01 
2.566220e+00 7.363587e+01 
2.600830e+00 7.198035e+01 
2.635080e+00 7.039404e+01 
2.670340e+00 6.880420e+01 
2.705970e+00 6.725440e+01 
2.740040e+00 6.581969e+01 
2.774520e+00 6.440230e+01 
2.809730e+00 6.300195e+01 
2.844390e+00 6.166612e+01 
2.879960e+00 6.033382e+01 
2.914860e+00 5.906393e+01 
2.949410e+00 5.784419e+01 
2.984440e+00 5.664549e+01 
3.019760e+00 5.546848e+01 
3.054730e+00 5.433528e+01 
3.089030e+00 5.325545e+01 
3.124060e+00 5.218406e+01 
3.159560e+00 5.112911e+01 
3.194710e+00 5.011405e+01 
3.229010e+00 4.915090e+01 
3.263320e+00 4.820869e+01 
3.297930e+00 4.728487e+01 
3.332830e+00 4.637982e+01 
3.368040e+00 4.549030e+01 
3.403300e+00 4.462281e+01 
3.438450e+00 4.377930e+01 
3.473060e+00 4.297040e+01 
3.508440e+00 4.216840e+01 
3.543110e+00 4.140267e+01 
3.577470e+00 4.066036e+01 
3.613040e+00 3.991240e+01 
3.648120e+00 3.919566e+01 
3.682910e+00 3.850116e+01 
3.718050e+00 3.781408e+01 
3.753320e+00 3.714350e+01 
3.787980e+00 3.650331e+01 
3.822290e+00 3.588373e+01 
3.857020e+00 3.526984e+01 
3.891920e+00 3.466776e+01 
3.926650e+00 3.408287e+01 
3.961970e+00 3.350218e+01 
3.997360e+00 3.293416e+01 
4.031670e+00 3.239655e+01 
4.066330e+00 3.186694e+01 
4.101420e+00 3.134306e+01 
4.136200e+00 3.083535e+01 
4.170810e+00 3.034148e+01 
4.206250e+00 2.984821e+01 
4.241580e+00 2.936777e+01 
4.276300e+00 2.890572e+01 
4.310970e+00 2.845418e+01 
4.346120e+00 2.800694e+01 
4.380600e+00 2.757863e+01 
4.414730e+00 2.716358e+01 
4.450350e+00 2.673916e+01 
4.485320e+00 2.633139e+01 
4.519810e+00 2.593864e+01 
4.555430e+00 2.554197e+01 
4.590870e+00 2.515602e+01 
4.625480e+00 2.478769e+01 
4.659910e+00 2.442867e+01 
4.695230e+00 2.406767e+01 
4.729960e+00 2.371984e+01 
4.764450e+00 2.338118e+01 
4.799530e+00 2.304342e+01 
4.834910e+00 2.270956e+01 
4.869700e+00 2.238998e+01 
4.904370e+00 2.207802e+01 
4.939450e+00 2.176842e+01 
4.973940e+00 2.146975e+01 
5.008430e+00 2.117671e+01 
5.043810e+00 2.088175e+01 
5.078840e+00 2.059524e+01 
5.113500e+00 2.031705e+01 
5.148890e+00 2.004049e+01 
5.184210e+00 1.976973e+01 
5.219060e+00 1.950718e+01 
5.253660e+00 1.925040e+01 
5.288570e+00 1.899599e+01 
5.323420e+00 1.874760e+01 
5.358440e+00 1.850358e+01 
5.393590e+00 1.826302e+01 
5.428310e+00 1.802962e+01 
5.462800e+00 1.780179e+01 
5.497640e+00 1.757565e+01 
5.532670e+00 1.735366e+01 
5.567280e+00 1.713856e+01 
5.602000e+00 1.692644e+01 
5.637270e+00 1.671388e+01 
5.672410e+00 1.650554e+01 
5.707020e+00 1.630380e+01 
5.742040e+00 1.610457e+01 
5.777430e+00 1.590691e+01 
5.812210e+00 1.571589e+01 
5.846820e+00 1.552887e+01 
5.881610e+00 1.534393e+01 
5.916510e+00 1.516142e+01 
5.951600e+00 1.498149e+01 
5.986560e+00 1.480539e+01 
6.021830e+00 1.463059e+01 
6.056490e+00 1.446195e+01 
6.091160e+00 1.429624e+01 
6.125830e+00 1.413311e+01 
6.161090e+00 1.396981e+01 
6.195760e+00 1.381175e+01 
6.230420e+00 1.365615e+01 
6.265690e+00 1.350030e+01 
6.300950e+00 1.334765e+01 
6.335620e+00 1.319985e+01 
6.370880e+00 1.305181e+01 
6.405550e+00 1.290887e+01 
6.440220e+00 1.276822e+01 
6.475480e+00 1.262732e+01 
6.510150e+00 1.249104e+01 
6.544810e+00 1.235725e+01 
6.580080e+00 1.222310e+01 
6.614750e+00 1.209317e+01 
6.649410e+00 1.196518e+01 
6.684080e+00 1.183901e+01 
6.719340e+00 1.171254e+01 
6.754010e+00 1.159013e+01 
6.788680e+00 1.146984e+01 
6.823940e+00 1.134924e+01 
6.859800e+00 1.122836e+01 
6.894470e+00 1.111353e+01 
6.929140e+00 1.100044e+01 
6.963800e+00 1.088894e+01 
6.999070e+00 1.077706e+01 
7.033730e+00 1.066868e+01 
7.068400e+00 1.056174e+01 
7.103660e+00 1.045447e+01 
7.138330e+00 1.035074e+01 
7.173600e+00 1.024726e+01 
7.208260e+00 1.014695e+01 
7.243530e+00 1.004623e+01 
7.277600e+00 9.950028e+00 
7.312860e+00 9.851599e+00 
7.348120e+00 9.754483e+00 
7.382790e+00 9.660251e+00 
7.417460e+00 9.567797e+00 
7.452720e+00 9.475281e+00 
7.487390e+00 9.385493e+00 
7.522650e+00 9.295356e+00 
7.557320e+00 9.207906e+00 
7.591990e+00 9.121582e+00 
7.627250e+00 9.034908e+00 
7.662510e+00 8.949344e+00 
7.697180e+00 8.866563e+00 
7.731850e+00 8.784926e+00 
7.766510e+00 8.704326e+00 
7.801180e+00 8.624700e+00 
7.836440e+00 8.544750e+00 
7.871110e+00 8.467127e+00 
7.906380e+00 8.389134e+00 
7.941040e+00 8.313431e+00 
7.976310e+00 8.237514e+00 
8.011570e+00 8.162757e+00 
8.046240e+00 8.090142e+00 
8.080900e+00 8.018417e+00 
8.115570e+00 7.947572e+00 
8.150830e+00 7.876553e+00 
8.185500e+00 7.807556e+00 
8.220770e+00 7.738198e+00 
8.255430e+00 7.670846e+00 
8.290100e+00 7.604440e+00 
8.324770e+00 7.538827e+00 
8.359430e+00 7.473994e+00 
8.394700e+00 7.408788e+00 
8.429960e+00 7.344466e+00 
8.464630e+00 7.282056e+00 
8.499890e+00 7.219314e+00 
8.534560e+00 7.158329e+00 
8.569200e+00 7.098087e+00 
